6724310	7162190	13143350	4024076	-400000047	-400000047	-400000047	-400000047	2	321	1964506823	8293536	0	0	0	0	0
6727505	7167054	13148357	4022217	-400000047	-400000047	-400000047	-400000047	2	321	1964506825	8293603	0	0	0	0	0
6731177	7175684	13154126	4024458	-400000047	-400000047	-400000047	-400000047	2	321	1964506827	8293648	0	0	0	0	0
6734562	7179308	13159181	4027319	-400000047	-400000047	-400000047	-400000047	2	321	1964506829	8293689	0	0	0	0	0
6734324	7180834	13156320	4024744	-400000047	-400000047	-400000047	-400000047	2	321	1964506831	8293741	0	0	0	0	0
6739283	7183504	13158799	4023504	-400000047	-400000047	-400000047	-400000047	2	321	1964506833	8295059	8300385	0	0	0	0
6746388	7189560	13168765	4023600	-400000047	-400000047	-400000047	-400000047	2	321	1964506835	8300022	0	0	0	0	0
6749296	7198239	13172389	4025984	-400000047	-400000047	-400000047	-400000047	2	321	1964506837	8300086	0	0	0	0	0
6750155	7200909	13172723	4026842	-400000047	-400000047	-400000047	-400000047	2	321	1964506839	8300132	0	0	0	0	0
6749678	7203961	13174535	4029226	-400000047	-400000047	-400000047	-400000047	2	321	1964506841	8300176	0	0	0	0	0
6755591	7207871	13179828	4032326	-400000047	-400000047	-400000047	-400000047	2	321	1964506843	8300233	0	0	0	0	0
6764603	7215453	13182832	4031372	-400000047	-400000047	-400000047	-400000047	2	321	1964506845	8300277	0	0	0	0	0
6766749	7217455	13183690	4023981	-400000047	-400000047	-400000047	-400000047	2	321	1964506847	8301338	0	0	0	0	0
6771422	7220507	13187457	4015827	-400000047	-400000047	-400000047	-400000047	2	321	1964506849	8303803	0	0	0	0	0
6774617	7220888	13191033	4011917	-400000047	-400000047	-400000047	-400000047	2	321	1964506851	8303868	8309195	0	0	0	0
6780815	7228804	13199617	4027987	-400000047	-400000047	-400000047	-400000047	2	321	1964506853	8309555	8311730	0	0	0	0
6793022	7251883	13219024	4057837	-400000047	-400000047	-400000047	-400000047	2	321	1964506855	8312629	0	0	0	0	0
6812477	7271433	13241292	4087019	-400000047	-400000047	-400000047	-400000047	2	321	1964506857	8312706	0	0	0	0	0
6811858	7266903	13237191	4084969	-400000047	-400000047	-400000047	-400000047	2	321	1964506859	8312746	0	0	0	0	0
6787920	7245255	13209630	4064846	-400000047	-400000047	-400000047	-400000047	2	321	1964506861	8312774	8314187	0	0	0	0
6771422	7232285	13197518	4051638	-400000047	-400000047	-400000047	-400000047	2	321	1964506863	8315155	8316749	0	0	0	0
6762219	7228852	13188983	4036331	-400000047	-400000047	-400000047	-400000047	2	321	1964506865	8319104	0	0	0	0	0
6758738	7225562	13186265	4025173	-400000047	-400000047	-400000047	-400000047	2	321	1964506867	8319199	0	0	0	0	0
6761694	7221508	13189078	4028845	-400000047	-400000047	-400000047	-400000047	2	321	1964506869	8319248	0	0	0	0	0
6760645	7216788	13187743	4036331	-400000047	-400000047	-400000047	-400000047	2	321	1964506871	8319301	0	0	0	0	0
6768656	7228566	13193418	4044723	-400000047	-400000047	-400000047	-400000047	2	321	1964506873	8321399	0	0	0	0	0
6763888	7227278	13189222	4041958	-400000047	-400000047	-400000047	-400000047	2	321	1964506875	8323886	0	0	0	0	0
6742668	7207013	13168574	4017735	-400000047	-400000047	-400000047	-400000047	2	321	1964506877	8324021	8325237	0	0	0	0
6732560	7199479	13158990	4004431	-400000047	-400000047	-400000047	-400000047	2	321	1964506879	8331575	0	0	0	0	0
6725169	7186938	13151361	3994846	-400000047	-400000047	-400000047	-400000047	2	321	1964506881	8331643	0	0	0	0	0
6728792	7181836	13156749	3995991	-400000047	-400000047	-400000047	-400000047	2	321	1964506883	8331675	8332796	0	0	0	0
6731892	7184697	13156463	3993940	-400000047	-400000047	-400000047	-400000047	2	321	1964506885	8333940	0	0	0	0	0
6730509	7185269	13157416	3996181	-400000047	-400000047	-400000047	-400000047	2	321	1964506887	8334015	8335734	0	0	0	0
6738377	7197094	13165141	4005003	-400000047	-400000047	-400000047	-400000047	2	321	1964506889	8337150	0	0	0	0	0
6739712	7201481	13166524	4005432	-400000047	-400000047	-400000047	-400000047	2	321	1964506891	8337219	0	0	0	0	0
6732273	7197285	13159181	3997135	-400000047	-400000047	-400000047	-400000047	2	321	1964506893	8339648	0	0	0	0	0
6735611	7196856	13158275	3995705	-400000047	-400000047	-400000047	-400000047	2	321	1964506895	8339704	0	0	0	0	0
6742144	7195235	13165380	4003525	-400000047	-400000047	-400000047	-400000047	2	321	1964506897	8339736	8342533	0	0	0	0
6741667	7193661	13168956	4006767	-400000047	-400000047	-400000047	-400000047	2	321	1964506899	8347149	0	0	0	0	0
6746912	7208014	13177301	4013014	-400000047	-400000047	-400000047	-400000047	2	321	1964506901	8347210	0	0	0	0	0
6753064	7219744	13184167	4016876	-400000047	-400000047	-400000047	-400000047	2	321	1964506903	8349608	0	0	0	0	0
6743431	7208062	13173295	4005575	-400000047	-400000047	-400000047	-400000047	2	321	1964506905	8349666	8350439	0	0	0	0
6744623	7207585	13171340	4004669	-400000047	-400000047	-400000047	-400000047	2	321	1964506907	8352134	0	0	0	0	0
6750965	7218314	13176108	4010248	-400000047	-400000047	-400000047	-400000047	2	321	1964506909	8352235	8358781	0	0	0	0
6756258	7223702	13179780	4016685	-400000047	-400000047	-400000047	-400000047	2	321	1964506911	8359161	0	0	0	0	0
6752444	7220555	13171769	4012108	-400000047	-400000047	-400000047	-400000047	2	321	1964506913	8359238	0	0	0	0	0
6757737	7224274	13175298	4016447	-400000047	-400000047	-400000047	-400000047	2	321	1964506915	8359278	8361569	0	0	0	0
6768561	7226181	13187457	4023027	-400000047	-400000047	-400000047	-400000047	2	321	1964506917	8362765	0	0	0	0	0
6778002	7235909	13197614	4031372	-400000047	-400000047	-400000047	-400000047	2	321	1964506919	8362828	0	0	0	0	0
6774140	7242489	13193513	4027653	-400000047	-400000047	-400000047	-400000047	2	321	1964506921	8362867	0	0	0	0	0
6762886	7228423	13182498	4017973	-400000047	-400000047	-400000047	-400000047	2	321	1964506923	8362906	8367478	0	0	0	0
6757546	7213784	13174678	4011917	-400000047	-400000047	-400000047	-400000047	2	321	1964506925	8367221	0	0	0	0	0
6754875	7215739	13167668	4007292	-400000047	-400000047	-400000047	-400000047	2	321	1964506927	8367303	0	0	0	0	0
6743336	7209015	13152553	3992128	-400000047	-400000047	-400000047	-400000047	2	321	1964506929	8373357	0	0	0	0	0
6737709	7205439	13146688	3985500	-400000047	-400000047	-400000047	-400000047	2	321	1964506931	8373435	0	0	0	0	0
6734801	7199669	13144303	3984404	-400000047	-400000047	-400000047	-400000047	2	321	1964506933	8373470	8375343	0	0	0	0
6728268	7193089	13138486	3977728	-400000047	-400000047	-400000047	-400000047	2	321	1964506935	8379631	8380550	0	0	0	0
6724119	7191849	13135053	3973675	-400000047	-400000047	-400000047	-400000047	2	321	1964506937	8387225	0	0	0	0	0
6729698	7198573	13141967	3977442	-400000047	-400000047	-400000047	-400000047	2	321	1964506939	8387323	0	0	0	0	0
6733799	7202721	13146926	3981543	-400000047	-400000047	-400000047	-400000047	2	321	1964506941	8387363	8389912	0	0	0	0
6728316	7196236	13140203	3977299	-400000047	-400000047	-400000047	-400000047	2	321	1964506943	8397586	8399801	0	0	0	0
6720972	7187510	13133193	3972006	-400000047	-400000047	-400000047	-400000047	2	321	1964506945	8402299	0	0	0	0	0
6725407	7188130	13137294	3972769	-400000047	-400000047	-400000047	-400000047	2	321	1964506947	8402415	0	0	0	0	0
6728792	7195902	13142301	3973341	-400000047	-400000047	-400000047	-400000047	2	321	1964506949	8402472	0	0	0	0	0
6738282	7206536	13149787	3976727	-400000047	-400000047	-400000047	-400000047	2	321	1964506951	8402516	0	0	0	0	0
6745482	7214404	13156797	3981066	-400000047	-400000047	-400000047	-400000047	2	321	1964506953	8402631	0	0	0	0	0
6752253	7225132	13165332	3990984	-400000047	-400000047	-400000047	-400000047	2	321	1964506955	8405184	0	0	0	0	0
6754065	7230330	13168574	3994989	-400000047	-400000047	-400000047	-400000047	2	321	1964506957	8405258	0	0	0	0	0
6756354	7224369	13167907	3994751	-400000047	-400000047	-400000047	-400000047	2	321	1964506959	8405301	8409180	0	0	0	0
6753636	7221604	13166381	3989887	-400000047	-400000047	-400000047	-400000047	2	321	1964506961	8409720	0	0	0	0	0
6741238	7211686	13156510	3978538	-400000047	-400000047	-400000047	-400000047	2	321	1964506963	8409785	0	0	0	0	0
6738758	7212162	13153697	3976250	-400000047	-400000047	-400000047	-400000047	2	321	1964506965	8409819	0	0	0	0	0
6740952	7217503	13152028	3974247	-400000047	-400000047	-400000047	-400000047	2	321	1964506967	8409850	0	0	0	0	0
6738758	7221747	13154746	3976488	-400000047	-400000047	-400000047	-400000047	2	321	1964506969	8409889	8412357	0	0	0	0
6739903	7226515	13160421	3980541	-400000047	-400000047	-400000047	-400000047	2	321	1964506971	8412177	0	0	0	0	0
6749058	7230378	13163234	3982210	-400000047	-400000047	-400000047	-400000047	2	321	1964506973	8413959	0	0	0	0	0
6744862	7218933	13157369	3979301	-400000047	-400000047	-400000047	-400000047	2	321	1964506975	8414042	8415199	0	0	0	0
6742001	7214260	13154889	3979158	-400000047	-400000047	-400000047	-400000047	2	321	1964506977	8417149	0	0	0	0	0
6741429	7216549	13153506	3977728	-400000047	-400000047	-400000047	-400000047	2	321	1964506979	8417246	0	0	0	0	0
6742668	7221413	13153125	3978395	-400000047	-400000047	-400000047	-400000047	2	321	1964506981	8417284	8419977	0	0	0	0
6739283	7224369	13153554	3977442	-400000047	-400000047	-400000047	-400000047	2	321	1964506983	8453935	0	0	0	0	0
6746102	7228375	13157893	3977966	-400000047	-400000047	-400000047	-400000047	2	321	1964506985	8454026	0	0	0	0	0
6750059	7228804	13158704	3977442	-400000047	-400000047	-400000047	-400000047	2	321	1964506987	8454054	8457075	0	0	0	0
6742430	7219744	13150025	3972101	-400000047	-400000047	-400000047	-400000047	2	321	1964506989	8458524	0	0	0	0	0
6742859	7222557	13150025	3972006	-400000047	-400000047	-400000047	-400000047	2	321	1964506991	8458610	0	0	0	0	0
6747675	7232285	13158561	3979826	-400000047	-400000047	-400000047	-400000047	2	321	1964506993	8458638	0	0	0	0	0
6744194	7228089	13155175	3978491	-400000047	-400000047	-400000047	-400000047	2	321	1964506995	8458662	0	0	0	0	0
6744767	7225418	13154508	3973579	-400000047	-400000047	-400000047	-400000047	2	321	1964506997	8458702	8459530	0	0	0	0
6740618	7220555	13149644	3970337	-400000047	-400000047	-400000047	-400000047	2	321	1964506999	8460167	0	0	0	0	0
6743765	7223940	13154222	3975582	-400000047	-400000047	-400000047	-400000047	2	321	1964507001	8460237	8461957	0	0	0	0
6744528	7225705	13156844	3975391	-400000047	-400000047	-400000047	-400000047	2	321	1964507003	8463998	0	0	0	0	0
6744814	7226563	13155414	3973103	-400000047	-400000047	-400000047	-400000047	2	321	1964507005	8464066	0	0	0	0	0
6749773	7234955	13157989	3976202	-400000047	-400000047	-400000047	-400000047	2	321	1964507007	8464093	8464632	0	0	0	0
6748629	7233429	13157703	3976583	-400000047	-400000047	-400000047	-400000047	2	321	1964507009	8466370	0	0	0	0	0
6747914	7231379	13159419	3978395	-400000047	-400000047	-400000047	-400000047	2	321	1964507011	8466464	8467201	0	0	0	0
6755781	7236958	13163234	3980160	-400000047	-400000047	-400000047	-400000047	2	321	1964507013	8469601	0	0	0	0	0
6755638	7236624	13161660	3979492	-400000047	-400000047	-400000047	-400000047	2	321	1964507015	8469706	8471242	0	0	0	0
6744814	7224369	13150931	3970194	-400000047	-400000047	-400000047	-400000047	2	321	1964507017	8473848	8475532	0	0	0	0
6741095	7225657	13152791	3966522	-400000047	-400000047	-400000047	-400000047	2	321	1964507019	8477723	0	0	0	0	0
6749773	7236863	13160182	3974295	-400000047	-400000047	-400000047	-400000047	2	321	1964507021	8477782	0	0	0	0	0
6746435	7234717	13154889	3970242	-400000047	-400000047	-400000047	-400000047	2	321	1964507023	8477811	0	0	0	0	0
6743145	7232380	13149501	3964090	-400000047	-400000047	-400000047	-400000047	2	321	1964507025	8477847	8479669	0	0	0	0
6737995	7229710	13145352	3960800	-400000047	-400000047	-400000047	-400000047	2	321	1964507027	8480128	8481599	0	0	0	0
6746579	7236910	13153840	3969622	-400000047	-400000047	-400000047	-400000047	2	321	1964507029	8487994	0	0	0	0	0
6750059	7239056	13156844	3971624	-400000047	-400000047	-400000047	-400000047	2	321	1964507031	8488082	0	0	0	0	0
6752730	7240630	13162471	3972006	-400000047	-400000047	-400000047	-400000047	2	321	1964507033	8488167	8490773	0	0	0	0
6753445	7243348	13159753	3969145	-400000047	-400000047	-400000047	-400000047	2	321	1964507035	8492227	0	0	0	0	0
6751633	7239008	13157655	3967667	-400000047	-400000047	-400000047	-400000047	2	321	1964507037	8492321	8493352	0	0	0	0
6750536	7237482	13156224	3968334	-400000047	-400000047	-400000047	-400000047	2	321	1964507039	8494061	0	0	0	0	0
6743241	7230997	13148929	3959703	-400000047	-400000047	-400000047	-400000047	2	321	1964507041	8494133	0	0	0	0	0
6740332	7234621	13145114	3958178	-400000047	-400000047	-400000047	-400000047	2	321	1964507043	8494179	0	0	0	0	0
6738806	7236529	13143016	3955746	-400000047	-400000047	-400000047	-400000047	2	321	1964507045	8494223	8495891	0	0	0	0
6744814	7242298	13147880	3957367	-400000047	-400000047	-400000047	-400000047	2	321	1964507047	8497075	8498295	0	0	0	0
6741572	7234192	13145114	3953361	-400000047	-400000047	-400000047	-400000047	2	321	1964507049	8501484	0	0	0	0	0
6746674	7233811	13149644	3961802	-400000047	-400000047	-400000047	-400000047	2	321	1964507051	8501556	8502561	0	0	0	0
6745625	7234526	13148595	3962231	-400000047	-400000047	-400000047	-400000047	2	321	1964507053	8504586	8506525	0	0	0	0
6744623	7232476	13147546	3962469	-400000047	-400000047	-400000047	-400000047	2	321	1964507055	8511459	0	0	0	0	0
6745148	7235098	13150025	3958607	-400000047	-400000047	-400000047	-400000047	2	321	1964507057	8511566	0	0	0	0	0
6746579	7233572	13148595	3954792	-400000047	-400000047	-400000047	-400000047	2	321	1964507059	8511613	0	0	0	0	0
6745053	7232762	13147403	3956509	-400000047	-400000047	-400000047	-400000047	2	321	1964507061	8511658	0	0	0	0	0
6734276	7228709	13141013	3950930	-400000047	-400000047	-400000047	-400000047	2	321	1964507063	8514609	0	0	0	0	0
6734085	7227469	13141013	3953266	-400000047	-400000047	-400000047	-400000047	2	321	1964507065	8514676	8516820	0	0	0	0
6742382	7235098	13144876	3955507	-400000047	-400000047	-400000047	-400000047	2	321	1964507067	8567690	8569589	0	0	0	0
6741572	7233668	13145448	3954697	-400000047	-400000047	-400000047	-400000047	2	321	1964507069	8571490	0	0	0	0	0
6739807	7231856	13143493	3953123	-400000047	-400000047	-400000047	-400000047	2	321	1964507071	8571557	0	0	0	0	0
6743145	7234478	13146449	3956413	-400000047	-400000047	-400000047	-400000047	2	321	1964507073	8571583	8575730	0	0	0	0
6752444	7244397	13154460	3962469	-400000047	-400000047	-400000047	-400000047	2	321	1964507075	8575241	0	0	0	0	0
6746435	7239247	13146592	3957272	-400000047	-400000047	-400000047	-400000047	2	321	1964507077	8575311	0	0	0	0	0
6748820	7243109	13149882	3958893	-400000047	-400000047	-400000047	-400000047	2	321	1964507079	8575406	0	0	0	0	0
6748295	7238198	13146831	3957033	-400000047	-400000047	-400000047	-400000047	2	321	1964507081	8575451	8578286	0	0	0	0
6738854	7227278	13137914	3950310	-400000047	-400000047	-400000047	-400000047	2	321	1964507083	8578350	0	0	0	0	0
6732178	7219363	13133288	3944302	-400000047	-400000047	-400000047	-400000047	2	321	1964507085	8578400	8580665	0	0	0	0
6739140	7225657	13138867	3945732	-400000047	-400000047	-400000047	-400000047	2	321	1964507087	8580902	0	0	0	0	0
6742859	7227326	13141109	3951454	-400000047	-400000047	-400000047	-400000047	2	321	1964507089	8580945	8583041	0	0	0	0
6744337	7220269	13140632	3954220	-400000047	-400000047	-400000047	-400000047	2	321	1964507091	8592625	8593597	0	0	0	0
6743813	7219029	13139201	3953600	-400000047	-400000047	-400000047	-400000047	2	321	1964507093	8595838	0	0	0	0	0
6742430	7225609	13138438	3951263	-400000047	-400000047	-400000047	-400000047	2	321	1964507095	8595925	0	0	0	0	0
6748247	7233143	13144542	3953600	-400000047	-400000047	-400000047	-400000047	2	321	1964507097	8595953	8597868	0	0	0	0
6745959	7225562	13142062	3953981	-400000047	-400000047	-400000047	-400000047	2	321	1964507099	8598352	0	0	0	0	0
6741619	7225228	13138438	3952551	-400000047	-400000047	-400000047	-400000047	2	321	1964507101	8598406	8600248	0	0	0	0
6743622	7226372	13136865	3949070	-400000047	-400000047	-400000047	-400000047	2	321	1964507103	8600832	0	0	0	0	0
6746292	7232857	13139535	3951836	-400000047	-400000047	-400000047	-400000047	2	321	1964507105	8600895	0	0	0	0	0
6742049	7234621	13139392	3952217	-400000047	-400000047	-400000047	-400000047	2	321	1964507107	8602648	8603633	0	0	0	0
6741953	7235957	13140250	3953695	-400000047	-400000047	-400000047	-400000047	2	321	1964507109	8607575	8609676	0	0	0	0
6733656	7222605	13131429	3945827	-400000047	-400000047	-400000047	-400000047	2	321	1964507111	8611361	0	0	0	0	0
6731367	7212067	13130714	3945732	-400000047	-400000047	-400000047	-400000047	2	321	1964507113	8611430	0	0	0	0	0
6739283	7209063	13135625	3948069	-400000047	-400000047	-400000047	-400000047	2	321	1964507115	8611519	0	0	0	0	0
6747008	7220888	13145591	3954315	-400000047	-400000047	-400000047	-400000047	2	321	1964507117	8611584	8613864	0	0	0	0
6745339	7226658	13139726	3948593	-400000047	-400000047	-400000047	-400000047	2	321	1964507119	8614715	0	0	0	0	0
6737042	7223416	13129140	3938723	-400000047	-400000047	-400000047	-400000047	2	321	1964507121	8614784	8616370	0	0	0	0
6741381	7227087	13133241	3945923	-400000047	-400000047	-400000047	-400000047	2	321	1964507123	8619605	0	0	0	0	0
6747532	7230425	13134147	3950548	-400000047	-400000047	-400000047	-400000047	2	321	1964507125	8619676	8619973	0	0	0	0
6742144	7224799	13127233	3945112	-400000047	-400000047	-400000047	-400000047	2	321	1964507127	8621418	8622318	0	0	0	0
6737519	7223463	13125373	3940392	-400000047	-400000047	-400000047	-400000047	2	321	1964507129	8623889	8624713	0	0	0	0
6727028	7216120	13121320	3933239	-400000047	-400000047	-400000047	-400000047	2	321	1964507131	8626390	0	0	0	0	0
6718064	7206822	13115550	3926420	-400000047	-400000047	-400000047	-400000047	2	321	1964507133	8626456	8627157	0	0	0	0
6722451	7206869	13119937	3932142	-400000047	-400000047	-400000047	-400000047	2	321	1964507135	8628967	0	0	0	0	0
6737566	7223606	13133527	3945494	-400000047	-400000047	-400000047	-400000047	2	321	1964507137	8629032	8629606	0	0	0	0
6744814	7233286	13145352	3955364	-400000047	-400000047	-400000047	-400000047	2	321	1964507139	8632833	0	0	0	0	0
6753731	7244397	13155604	3963327	-400000047	-400000047	-400000047	-400000047	2	321	1964507141	8632912	0	0	0	0	0
6750679	7240630	13148643	3959799	-400000047	-400000047	-400000047	-400000047	2	321	1964507143	8632943	0	0	0	0	0
6742764	7227946	13137580	3948736	-400000047	-400000047	-400000047	-400000047	2	321	1964507145	8632979	8634815	0	0	0	0
6744004	7232476	13135625	3946257	-400000047	-400000047	-400000047	-400000047	2	321	1964507147	8635886	0	0	0	0	0
6735516	7225514	13130952	3945255	-400000047	-400000047	-400000047	-400000047	2	321	1964507149	8635941	8637040	0	0	0	0
6737423	7220650	13135959	3952455	-400000047	-400000047	-400000047	-400000047	2	321	1964507151	8642673	0	0	0	0	0
6725693	7205010	13118840	3936720	-400000047	-400000047	-400000047	-400000047	2	321	1964507153	8642736	0	0	0	0	0
6720639	7198906	13110591	3928566	-400000047	-400000047	-400000047	-400000047	2	321	1964507155	8642768	8643681	0	0	0	0
6715012	7195425	13104106	3922653	-400000047	-400000047	-400000047	-400000047	2	321	1964507157	8652262	0	0	0	0	0
6709051	7196093	13101531	3920650	-400000047	-400000047	-400000047	-400000047	2	321	1964507159	8652343	0	0	0	0	0
6712914	7210064	13108541	3926229	-400000047	-400000047	-400000047	-400000047	2	321	1964507161	8652373	0	0	0	0	0
6724072	7215739	13120462	3936434	-400000047	-400000047	-400000047	-400000047	2	321	1964507163	8652398	0	0	0	0	0
6755686	7239008	13153602	3967953	-400000047	-400000047	-400000047	-400000047	2	321	1964507165	8652434	8653831	0	0	0	0
6774235	7256747	13166953	3981400	-400000047	-400000047	-400000047	-400000047	2	321	1964507167	8653931	8655905	0	0	0	0
6761599	7247210	13150931	3962278	-400000047	-400000047	-400000047	-400000047	2	321	1964507169	8657734	0	0	0	0	0
6755400	7240153	13141538	3947306	-400000047	-400000047	-400000047	-400000047	2	321	1964507171	8657802	0	0	0	0	0
6749916	7235289	13135863	3936481	-400000047	-400000047	-400000047	-400000047	2	321	1964507173	8657834	0	0	0	0	0
6755114	7247591	13139154	3942108	-400000047	-400000047	-400000047	-400000047	2	321	1964507175	8657859	8658365	0	0	0	0
6750393	7242298	13136674	3949594	-400000047	-400000047	-400000047	-400000047	2	321	1964507177	8662197	0	0	0	0	0
6747294	7232142	13133813	3955173	-400000047	-400000047	-400000047	-400000047	2	321	1964507179	8662301	0	0	0	0	0
6744099	7228423	13128568	3955269	-400000047	-400000047	-400000047	-400000047	2	321	1964507181	8662353	0	0	0	0	0
6739044	7223177	13120319	3950262	-400000047	-400000047	-400000047	-400000047	2	321	1964507183	8662398	0	0	0	0	0
6739044	7222319	13119937	3947020	-400000047	-400000047	-400000047	-400000047	2	321	1964507185	8662457	8663051	0	0	0	0
6736231	7217598	13118030	3944969	-400000047	-400000047	-400000047	-400000047	2	321	1964507187	8664579	0	0	0	0	0
6727743	7204676	13114501	3943968	-400000047	-400000047	-400000047	-400000047	2	321	1964507189	8664656	8665309	0	0	0	0
6734228	7210589	13121129	3947878	-400000047	-400000047	-400000047	-400000047	2	321	1964507191	8667086	0	0	0	0	0
6743717	7225895	13132478	3959608	-400000047	-400000047	-400000047	-400000047	2	321	1964507193	8667154	8668725	0	0	0	0
6760407	7245970	13142778	3972721	-400000047	-400000047	-400000047	-400000047	2	321	1964507195	8669624	0	0	0	0	0
6750727	7230950	13124896	3958750	-400000047	-400000047	-400000047	-400000047	2	321	1964507197	8669693	8670730	0	0	0	0
6746006	7220698	13121034	3946590	-400000047	-400000047	-400000047	-400000047	2	321	1964507199	8677151	0	0	0	0	0
6749773	7229376	13127566	3951073	-400000047	-400000047	-400000047	-400000047	2	321	1964507201	8677252	0	0	0	0	0
6757498	7240200	13139535	3961563	-400000047	-400000047	-400000047	-400000047	2	321	1964507203	8677280	0	0	0	0	0
6758547	7242775	13141299	3962898	-400000047	-400000047	-400000047	-400000047	2	321	1964507205	8677306	0	0	0	0	0
6763745	7247639	13142205	3969288	-400000047	-400000047	-400000047	-400000047	2	321	1964507207	8677347	0	0	0	0	0
6763697	7239676	13143016	3972006	-400000047	-400000047	-400000047	-400000047	2	321	1964507209	8677375	0	0	0	0	0
6757307	7229233	13138963	3968668	-400000047	-400000047	-400000047	-400000047	2	321	1964507211	8677402	0	0	0	0	0
6761742	7238102	13139583	3970480	-400000047	-400000047	-400000047	-400000047	2	321	1964507213	8677428	0	0	0	0	0
6765700	7240439	13141919	3973389	-400000047	-400000047	-400000047	-400000047	2	321	1964507215	8677461	8678972	0	0	0	0
6773997	7250834	13151933	3984833	-400000047	-400000047	-400000047	-400000047	2	321	1964507217	8681000	0	0	0	0	0
6780148	7253361	13156606	3987503	-400000047	-400000047	-400000047	-400000047	2	321	1964507219	8681075	0	0	0	0	0
6773043	7250452	13149024	3978538	-400000047	-400000047	-400000047	-400000047	2	321	1964507221	8681119	0	0	0	0	0
6764460	7244873	13138915	3969240	-400000047	-400000047	-400000047	-400000047	2	321	1964507223	8681152	0	0	0	0	0
6755019	7235957	13128568	3963613	-400000047	-400000047	-400000047	-400000047	2	321	1964507225	8681200	8681603	0	0	0	0
6746579	7223654	13118983	3960991	-400000047	-400000047	-400000047	-400000047	2	321	1964507227	8683425	0	0	0	0	0
6743622	7220745	13117171	3958273	-400000047	-400000047	-400000047	-400000047	2	321	1964507229	8683507	8683891	0	0	0	0
6744671	7222081	13123370	3961706	-400000047	-400000047	-400000047	-400000047	2	321	1964507231	8685078	8687262	0	0	0	0
6756354	7232762	13139869	3971529	-400000047	-400000047	-400000047	-400000047	2	321	1964507233	8687556	0	0	0	0	0
6766463	7246399	13152648	3975916	-400000047	-400000047	-400000047	-400000047	2	321	1964507235	8687614	8689845	0	0	0	0
6782341	7263136	13165380	3991032	-400000047	-400000047	-400000047	-400000047	2	321	1964507237	8690776	8692192	0	0	0	0
6776285	7258463	13150645	3987980	-400000047	-400000047	-400000047	-400000047	2	321	1964507239	8694013	0	0	0	0	0
6765366	7244540	13136054	3976059	-400000047	-400000047	-400000047	-400000047	2	321	1964507241	8694083	0	0	0	0	0
6758786	7236290	13134910	3971910	-400000047	-400000047	-400000047	-400000047	2	321	1964507243	8694120	8694766	0	0	0	0
6754780	7226372	13130189	3966904	-400000047	-400000047	-400000047	-400000047	2	321	1964507245	8696378	0	0	0	0	0
6761456	7229329	13132573	3973913	-400000047	-400000047	-400000047	-400000047	2	321	1964507247	8696453	8697125	0	0	0	0
6760645	7230950	13134719	3973961	-400000047	-400000047	-400000047	-400000047	2	321	1964507249	8702255	0	0	0	0	0
6768084	7241154	13145972	3980923	-400000047	-400000047	-400000047	-400000047	2	321	1964507251	8702388	0	0	0	0	0
6766749	7243300	13149978	3983307	-400000047	-400000047	-400000047	-400000047	2	321	1964507253	8702447	8704633	0	0	0	0
6758595	7236481	13149692	3979444	-400000047	-400000047	-400000047	-400000047	2	321	1964507255	8704630	0	0	0	0	0
6750346	7230711	13141919	3974247	-400000047	-400000047	-400000047	-400000047	2	321	1964507257	8705346	8706740	0	0	0	0
6746817	7232571	13134147	3968716	-400000047	-400000047	-400000047	-400000047	2	321	1964507259	8715299	0	0	0	0	0
6754303	7240725	13137962	3970861	-400000047	-400000047	-400000047	-400000047	2	321	1964507261	8715388	0	0	0	0	0
6763268	7247353	13146306	3976583	-400000047	-400000047	-400000047	-400000047	2	321	1964507263	8715435	0	0	0	0	0
6767702	7253886	13152028	3979588	-400000047	-400000047	-400000047	-400000047	2	321	1964507265	8715477	8716990	0	0	0	0
6771517	7259798	13156987	3982496	-400000047	-400000047	-400000047	-400000047	2	321	1964507267	8717593	8719488	0	0	0	0
6773186	7261992	13156701	3984833	-400000047	-400000047	-400000047	-400000047	2	321	1964507269	8725333	0	0	0	0	0
6776142	7262421	13153936	3987741	-400000047	-400000047	-400000047	-400000047	2	321	1964507271	8725399	0	0	0	0	0
6781483	7262421	13157655	3990364	-400000047	-400000047	-400000047	-400000047	2	321	1964507273	8725425	8726138	0	0	0	0
6783009	7263136	13162423	3996468	-400000047	-400000047	-400000047	-400000047	2	321	1964507275	8728964	0	0	0	0	0
6790257	7275534	13174773	4007339	-400000047	-400000047	-400000047	-400000047	2	321	1964507277	8729038	0	0	0	0	0
6798411	7289601	13188029	4018354	-400000047	-400000047	-400000047	-400000047	2	321	1964507279	8729065	0	0	0	0	0
6805706	7294560	13195087	4024124	-400000047	-400000047	-400000047	-400000047	2	321	1964507281	8729090	8730774	0	0	0	0
6798888	7284212	13181497	4011059	-400000047	-400000047	-400000047	-400000047	2	321	1964507283	8732163	0	0	0	0	0
6794119	7275439	13171531	4004621	-400000047	-400000047	-400000047	-400000047	2	321	1964507285	8732248	8732967	0	0	0	0
6798983	7275772	13183595	4010773	-400000047	-400000047	-400000047	-400000047	2	321	1964507287	8734605	8736488	0	0	0	0
6799174	7280636	13183452	4009914	-400000047	-400000047	-400000047	-400000047	2	321	1964507289	8737071	0	0	0	0	0
6785822	7275391	13167859	4001045	-400000047	-400000047	-400000047	-400000047	2	321	1964507291	8737129	8738891	0	0	0	0
6774903	7266617	13155891	3992987	-400000047	-400000047	-400000047	-400000047	2	321	1964507293	8738896	8740860	0	0	0	0
6769228	7256127	13154126	3991318	-400000047	-400000047	-400000047	-400000047	2	321	1964507295	8741408	0	0	0	0	0
6782246	7262230	13169814	4001856	-400000047	-400000047	-400000047	-400000047	2	321	1964507297	8741480	8742943	0	0	0	0
6785298	7265520	13171960	4003000	-400000047	-400000047	-400000047	-400000047	2	321	1964507299	8744566	0	0	0	0	0
6793166	7279873	13180305	4012012	-400000047	-400000047	-400000047	-400000047	2	321	1964507301	8744622	8745256	0	0	0	0
6780768	7273960	13169099	4001284	-400000047	-400000047	-400000047	-400000047	2	321	1964507303	8746306	8747788	0	0	0	0
6778050	7270527	13167907	4001474	-400000047	-400000047	-400000047	-400000047	2	321	1964507305	8750819	0	0	0	0	0
6779242	7268095	13169957	4001236	-400000047	-400000047	-400000047	-400000047	2	321	1964507307	8750892	0	0	0	0	0
6773901	7259703	13165046	3994083	-400000047	-400000047	-400000047	-400000047	2	321	1964507309	8750921	8752091	0	0	0	0
6777048	7262135	13163854	3992891	-400000047	-400000047	-400000047	-400000047	2	321	1964507311	8783833	8784560	0	0	0	0
6791783	7276774	13174583	4001045	-400000047	-400000047	-400000047	-400000047	2	321	1964507313	8787115	0	0	0	0	0
6797600	7289601	13184215	4010773	-400000047	-400000047	-400000047	-400000047	2	321	1964507315	8787207	0	0	0	0	0
6798077	7293558	13188316	4015970	-400000047	-400000047	-400000047	-400000047	2	321	1964507317	8787235	8789038	0	0	0	0
6797219	7292414	13190414	4018688	-400000047	-400000047	-400000047	-400000047	2	321	1964507319	8790342	0	0	0	0	0
6787062	7283736	13184835	4013777	-400000047	-400000047	-400000047	-400000047	2	321	1964507321	8790453	0	0	0	0	0
6776476	7273150	13172198	4004621	-400000047	-400000047	-400000047	-400000047	2	321	1964507323	8790499	0	0	0	0	0
6776238	7275010	13166238	4001951	-400000047	-400000047	-400000047	-400000047	2	321	1964507325	8790540	8791576	0	0	0	0
6773758	7272530	13165380	3998613	-400000047	-400000047	-400000047	-400000047	2	321	1964507327	8793994	0	0	0	0	0
6774569	7268763	13168098	3998709	-400000047	-400000047	-400000047	-400000047	2	321	1964507329	8794057	0	0	0	0	0
6774330	7263470	13166381	3996468	-400000047	-400000047	-400000047	-400000047	2	321	1964507331	8794093	8794883	0	0	0	0
6773281	7260228	13166572	3997612	-400000047	-400000047	-400000047	-400000047	2	321	1964507333	8797044	0	0	0	0	0
6778765	7269192	13171960	3999519	-400000047	-400000047	-400000047	-400000047	2	321	1964507335	8797106	0	0	0	0	0
6787157	7274962	13179399	4004192	-400000047	-400000047	-400000047	-400000047	2	321	1964507337	8797146	8800483	0	0	0	0
6782723	7269097	13173438	4005241	-400000047	-400000047	-400000047	-400000047	2	321	1964507339	8799580	0	0	0	0	0
6770993	7260991	13160277	3995848	-400000047	-400000047	-400000047	-400000047	2	321	1964507341	8800858	0	0	0	0	0
6767321	7259560	13154508	3989887	-400000047	-400000047	-400000047	-400000047	2	321	1964507343	8802075	0	0	0	0	0
6755257	7253361	13147689	3982019	-400000047	-400000047	-400000047	-400000047	2	321	1964507345	8802138	0	0	0	0	0
6751824	7251025	13146878	3981256	-400000047	-400000047	-400000047	-400000047	2	321	1964507347	8804001	0	0	0	0	0
6751967	7243300	13144780	3982353	-400000047	-400000047	-400000047	-400000047	2	321	1964507349	8807152	0	0	0	0	0
6751490	7244778	13138486	3978300	-400000047	-400000047	-400000047	-400000047	2	321	1964507351	8807212	0	0	0	0	0
6759262	7258606	13144876	3983116	-400000047	-400000047	-400000047	-400000047	2	321	1964507353	8807245	8808074	0	0	0	0
6771469	7274008	13157703	3993416	-400000047	-400000047	-400000047	-400000047	2	321	1964507355	8809662	0	0	0	0	0
6773997	7272435	13163425	3996372	-400000047	-400000047	-400000047	-400000047	2	321	1964507357	8809700	8810577	0	0	0	0
6772948	7267380	13163472	3996372	-400000047	-400000047	-400000047	-400000047	2	321	1964507359	8812862	0	0	0	0	0
6768942	7270146	13162519	3997517	-400000047	-400000047	-400000047	-400000047	2	321	1964507361	8812975	0	0	0	0	0
6775618	7284308	13166286	4000330	-400000047	-400000047	-400000047	-400000047	2	321	1964507363	8813023	0	0	0	0	0
6784821	7288170	13171769	4008913	-400000047	-400000047	-400000047	-400000047	2	321	1964507365	8815060	8815686	0	0	0	0
6789065	7285500	13175870	4014444	-400000047	-400000047	-400000047	-400000047	2	321	1964507367	8819897	0	0	0	0	0
6784487	7286883	13174201	4009914	-400000047	-400000047	-400000047	-400000047	2	321	1964507369	8820007	0	0	0	0	0
6781626	7287503	13174583	4008675	-400000047	-400000047	-400000047	-400000047	2	321	1964507371	8820056	0	0	0	0	0
6777239	7282639	13174773	4008007	-400000047	-400000047	-400000047	-400000047	2	321	1964507373	8820102	0	0	0	0	0
6777001	7278777	13171531	4004335	-400000047	-400000047	-400000047	-400000047	2	321	1964507375	8820166	8822321	0	0	0	0
6788683	7291270	13180543	4012680	-400000047	-400000047	-400000047	-400000047	2	321	1964507377	8821436	0	0	0	0	0
6790018	7298279	13179542	4012394	-400000047	-400000047	-400000047	-400000047	2	321	1964507379	8821532	8825592	0	0	0	0
6781912	7288885	13172055	4007959	-400000047	-400000047	-400000047	-400000047	2	321	1964507381	8825316	0	0	0	0	0
6781388	7282019	13174106	4010057	-400000047	-400000047	-400000047	-400000047	2	321	1964507383	8825412	0	0	0	0	0
6782341	7283736	13174630	4006052	-400000047	-400000047	-400000047	-400000047	2	321	1964507385	8825466	0	0	0	0	0
6783820	7286120	13178016	4009247	-400000047	-400000047	-400000047	-400000047	2	321	1964507387	8828935	0	0	0	0	0
6783915	7284975	13179399	4012871	-400000047	-400000047	-400000047	-400000047	2	321	1964507389	8829002	0	0	0	0	0
6781483	7287932	13169242	4006577	-400000047	-400000047	-400000047	-400000047	2	321	1964507391	8829029	8830881	0	0	0	0
6771517	7283974	13155366	3997993	-400000047	-400000047	-400000047	-400000047	2	321	1964507393	8831255	0	0	0	0	0
6769800	7283879	13154412	3996754	-400000047	-400000047	-400000047	-400000047	2	321	1964507395	8831321	8833399	0	0	0	0
6774617	7287884	13158513	3999805	-400000047	-400000047	-400000047	-400000047	2	321	1964507397	8834821	0	0	0	0	0
6776715	7288885	13163854	4002428	-400000047	-400000047	-400000047	-400000047	2	321	1964507399	8834939	0	0	0	0	0
6775046	7290841	13167239	4004383	-400000047	-400000047	-400000047	-400000047	2	321	1964507401	8834970	8836106	0	0	0	0
6779719	7298994	13177348	4011345	-400000047	-400000047	-400000047	-400000047	2	321	1964507403	8840105	8842666	0	0	0	0
6783438	7300663	13179923	4011917	-400000047	-400000047	-400000047	-400000047	2	321	1964507405	8875991	0	0	0	0	0
6787491	7302666	13181401	4009724	-400000047	-400000047	-400000047	-400000047	2	321	1964507407	8876075	0	0	0	0	0
6785822	7300759	13175202	4007244	-400000047	-400000047	-400000047	-400000047	2	321	1964507409	8876117	8876858	0	0	0	0
6770563	7285309	13158275	3998232	-400000047	-400000047	-400000047	-400000047	2	321	1964507411	8879042	0	0	0	0	0
6773806	7284832	13158752	4002333	-400000047	-400000047	-400000047	-400000047	2	321	1964507413	8879147	0	0	0	0	0
6771660	7281590	13161470	4002428	-400000047	-400000047	-400000047	-400000047	2	321	1964507415	8879194	8881688	0	0	0	0
6764698	7276869	13160850	3993797	-400000047	-400000047	-400000047	-400000047	2	321	1964507417	8882770	0	0	0	0	0
6760407	7274533	13157130	3988504	-400000047	-400000047	-400000047	-400000047	2	321	1964507419	8882868	0	0	0	0	0
6766033	7281018	13161327	3991985	-400000047	-400000047	-400000047	-400000047	2	321	1964507421	8882917	8883915	0	0	0	0
6770420	7285214	13165618	3997660	-400000047	-400000047	-400000047	-400000047	2	321	1964507423	8886594	0	0	0	0	0
6764794	7281113	13159085	3996515	-400000047	-400000047	-400000047	-400000047	2	321	1964507425	8886665	0	0	0	0	0
6764984	7283831	13158942	3992748	-400000047	-400000047	-400000047	-400000047	2	321	1964507427	8886742	0	0	0	0	0
6764555	7276154	13154889	3985691	-400000047	-400000047	-400000047	-400000047	2	321	1964507429	8889040	0	0	0	0	0
6761408	7265187	13149644	3983259	-400000047	-400000047	-400000047	-400000047	2	321	1964507431	8889086	8891473	0	0	0	0
6754780	7264185	13146354	3982115	-400000047	-400000047	-400000047	-400000047	2	321	1964507433	8892809	0	0	0	0	0
6739760	7257033	13138915	3972721	-400000047	-400000047	-400000047	-400000047	2	321	1964507435	8892856	0	0	0	0	0
6736994	7254649	13137389	3968954	-400000047	-400000047	-400000047	-400000047	2	321	1964507437	8892883	8893805	0	0	0	0
6743193	7257891	13134433	3968334	-400000047	-400000047	-400000047	-400000047	2	321	1964507439	8896564	0	0	0	0	0
6746006	7259846	13133193	3968620	-400000047	-400000047	-400000047	-400000047	2	321	1964507441	8896618	0	0	0	0	0
6743241	7259369	13136197	3971767	-400000047	-400000047	-400000047	-400000047	2	321	1964507443	8896645	0	0	0	0	0
6750393	7265234	13146831	3981447	-400000047	-400000047	-400000047	-400000047	2	321	1964507445	8896670	8897891	0	0	0	0
6759215	7272625	13153888	3988218	-400000047	-400000047	-400000047	-400000047	2	321	1964507447	8904725	8905807	0	0	0	0
6759930	7274437	13155891	3989458	-400000047	-400000047	-400000047	-400000047	2	321	1964507449	8907187	0	0	0	0	0
6767893	7281685	13164044	3994703	-400000047	-400000047	-400000047	-400000047	2	321	1964507451	8907250	8907984	0	0	0	0
6779194	7292462	13173486	4002142	-400000047	-400000047	-400000047	-400000047	2	321	1964507453	8908819	8910621	0	0	0	0
6779528	7294226	13167668	3995943	-400000047	-400000047	-400000047	-400000047	2	321	1964507455	8911349	0	0	0	0	0
6776333	7289219	13158942	3991127	-400000047	-400000047	-400000047	-400000047	2	321	1964507457	8911407	8913292	0	0	0	0
6782246	7295514	13165856	3998470	-400000047	-400000047	-400000047	-400000047	2	321	1964507459	8914028	0	0	0	0	0
6785536	7304192	13167668	4005480	-400000047	-400000047	-400000047	-400000047	2	321	1964507461	8914072	8915767	0	0	0	0
6794596	7314730	13182450	4015207	-400000047	-400000047	-400000047	-400000047	2	321	1964507463	8917079	0	0	0	0	0
6793595	7307911	13188983	4013681	-400000047	-400000047	-400000047	-400000047	2	321	1964507465	8917142	8918859	0	0	0	0
6791878	7304573	13188697	4012966	-400000047	-400000047	-400000047	-400000047	2	321	1964507467	8919754	8920733	0	0	0	0
6789351	7297945	13181258	4005003	-400000047	-400000047	-400000047	-400000047	2	321	1964507469	8921632	0	0	0	0	0
6786633	7296515	13177158	4002666	-400000047	-400000047	-400000047	-400000047	2	321	1964507471	8921677	8922772	0	0	0	0
6783629	7300520	13175632	4005003	-400000047	-400000047	-400000047	-400000047	2	321	1964507473	8923936	8924733	0	0	0	0
6780005	7299137	13173438	4001331	-400000047	-400000047	-400000047	-400000047	2	321	1964507475	8928606	0	0	0	0	0
6777478	7293892	13171912	4000568	-400000047	-400000047	-400000047	-400000047	2	321	1964507477	8928675	0	0	0	0	0
6774807	7289744	13172866	4003239	-400000047	-400000047	-400000047	-400000047	2	321	1964507479	8928702	0	0	0	0	0
6765509	7284689	13167335	3997755	-400000047	-400000047	-400000047	-400000047	2	321	1964507481	8928727	0	0	0	0	0
6772900	7288504	13168956	3998470	-400000047	-400000047	-400000047	-400000047	2	321	1964507483	8928762	0	0	0	0	0
6781578	7290793	13174726	4002380	-400000047	-400000047	-400000047	-400000047	2	321	1964507485	8928790	8930967	0	0	0	0
6780815	7287455	13174869	4001617	-400000047	-400000047	-400000047	-400000047	2	321	1964507487	8931422	0	0	0	0	0
6775713	7286978	13171579	3998232	-400000047	-400000047	-400000047	-400000047	2	321	1964507489	8931473	0	0	0	0	0
6775427	7286692	13169480	3995371	-400000047	-400000047	-400000047	-400000047	2	321	1964507491	8931505	8933281	0	0	0	0
6772232	7282067	13164569	3991652	-400000047	-400000047	-400000047	-400000047	2	321	1964507493	8933816	8936606	0	0	0	0
6766272	7282305	13159562	3992271	-400000047	-400000047	-400000047	-400000047	2	321	1964507495	8937851	0	0	0	0	0
6767416	7286454	13163139	3996754	-400000047	-400000047	-400000047	-400000047	2	321	1964507497	8937907	0	0	0	0	0
6772948	7288313	13168002	4000664	-400000047	-400000047	-400000047	-400000047	2	321	1964507499	8937939	0	0	0	0	0
6773854	7286120	13165761	3998518	-400000047	-400000047	-400000047	-400000047	2	321	1964507501	8937978	8938935	0	0	0	0
6775189	7288075	13167573	3995609	-400000047	-400000047	-400000047	-400000047	2	321	1964507503	8940966	0	0	0	0	0
6777668	7294655	13174440	3997231	-400000047	-400000047	-400000047	-400000047	2	321	1964507505	8941031	8942833	0	0	0	0
6776858	7293988	13174010	3995705	-400000047	-400000047	-400000047	-400000047	2	321	1964507507	8943280	0	0	0	0	0
6777478	7297039	13172198	3993702	-400000047	-400000047	-400000047	-400000047	2	321	1964507509	8943329	8945260	0	0	0	0
6776190	7289410	13170577	3997660	-400000047	-400000047	-400000047	-400000047	2	321	1964507511	8960809	0	0	0	0	0
6766510	7274056	13166715	3998899	-400000047	-400000047	-400000047	-400000047	2	321	1964507513	8960905	0	0	0	0	0
6762553	7274056	13165284	3994131	-400000047	-400000047	-400000047	-400000047	2	321	1964507515	8960937	8962754	0	0	0	0
6755257	7264328	13155223	3984880	-400000047	-400000047	-400000047	-400000047	2	321	1964507517	8964666	0	0	0	0	0
6755066	7264805	13154222	3983259	-400000047	-400000047	-400000047	-400000047	2	321	1964507519	8964734	0	0	0	0	0
6746292	7251835	13142062	3973865	-400000047	-400000047	-400000047	-400000047	2	321	1964507521	8964760	0	0	0	0	0
6737662	7243777	13132049	3968382	-400000047	-400000047	-400000047	-400000047	2	321	1964507523	8964784	0	0	0	0	0
6736183	7247019	13132001	3969812	-400000047	-400000047	-400000047	-400000047	2	321	1964507525	8964816	8965600	0	0	0	0
6739188	7248450	13132955	3972959	-400000047	-400000047	-400000047	-400000047	2	321	1964507527	8967168	0	0	0	0	0
6743574	7247830	13135863	3976059	-400000047	-400000047	-400000047	-400000047	2	321	1964507529	8967222	8968931	0	0	0	0
6749201	7251740	13140966	3982687	-400000047	-400000047	-400000047	-400000047	2	321	1964507531	8971441	0	0	0	0	0
6756831	7259274	13150598	3991318	-400000047	-400000047	-400000047	-400000047	2	321	1964507533	8971504	0	0	0	0	0
6762553	7269907	13157750	3995752	-400000047	-400000047	-400000047	-400000047	2	321	1964507535	8971531	0	0	0	0	0
6767893	7278204	13161231	3997564	-400000047	-400000047	-400000047	-400000047	2	321	1964507537	8971556	8973643	0	0	0	0
6762266	7270337	13153792	3992128	-400000047	-400000047	-400000047	-400000047	2	321	1964507539	8976543	0	0	0	0	0
6763268	7269717	13152410	3992748	-400000047	-400000047	-400000047	-400000047	2	321	1964507541	8976637	0	0	0	0	0
6752539	7259083	13142110	3986979	-400000047	-400000047	-400000047	-400000047	2	321	1964507543	8976665	0	0	0	0	0
6741381	7248354	13136388	3978348	-400000047	-400000047	-400000047	-400000047	2	321	1964507545	8976698	8977740	0	0	0	0
6738520	7244254	13135339	3974342	-400000047	-400000047	-400000047	-400000047	2	321	1964507547	8978825	8979729	0	0	0	0
6728697	7235575	13126088	3962898	-400000047	-400000047	-400000047	-400000047	2	321	1964507549	8983337	0	0	0	0	0
6733465	7246304	13132001	3966808	-400000047	-400000047	-400000047	-400000047	2	321	1964507551	8983406	8985187	0	0	0	0
6738568	7249308	13136817	3966761	-400000047	-400000047	-400000047	-400000047	2	321	1964507553	9022658	0	0	0	0	0
6743098	7251406	13144685	3972006	-400000047	-400000047	-400000047	-400000047	2	321	1964507555	9022743	0	0	0	0	0
6740618	7253075	13142587	3969288	-400000047	-400000047	-400000047	-400000047	2	321	1964507557	9022771	0	0	0	0	0
6744671	7262183	13145734	3973103	-400000047	-400000047	-400000047	-400000047	2	321	1964507559	9022796	0	0	0	0	0
6759596	7275010	13155891	3989792	-400000047	-400000047	-400000047	-400000047	2	321	1964507561	9022834	0	0	0	0	0
6775379	7282305	13166810	3998089	-400000047	-400000047	-400000047	-400000047	2	321	1964507563	9022861	0	0	0	0	0
6789542	7297564	13188935	4008913	-400000047	-400000047	-400000047	-400000047	2	321	1964507565	9022888	0	0	0	0	0
6791783	7306290	13194181	4010582	-400000047	-400000047	-400000047	-400000047	2	321	1964507567	9024083	0	0	0	0	0
6781721	7297707	13181783	3998518	-400000047	-400000047	-400000047	-400000047	2	321	1964507569	9024146	0	0	0	0	0
6774426	7291317	13174440	3993559	-400000047	-400000047	-400000047	-400000047	2	321	1964507571	9024172	0	0	0	0	0
6771994	7283736	13167812	3989506	-400000047	-400000047	-400000047	-400000047	2	321	1964507573	9024204	9024995	0	0	0	0
6772805	7286501	13167478	3990364	-400000047	-400000047	-400000047	-400000047	2	321	1964507575	9027393	9029514	0	0	0	0
6767655	7282305	13162376	3988600	-400000047	-400000047	-400000047	-400000047	2	321	1964507577	9029571	0	0	0	0	0
6768418	7282734	13163901	3987694	-400000047	-400000047	-400000047	-400000047	2	321	1964507579	9029611	0	0	0	0	0
6773138	7288838	13167192	3991508	-400000047	-400000047	-400000047	-400000047	2	321	1964507581	9029636	9031606	0	0	0	0
6768799	7281924	13160611	3985643	-400000047	-400000047	-400000047	-400000047	2	321	1964507583	9032790	0	0	0	0	0
6776238	7286549	13167764	3988886	-400000047	-400000047	-400000047	-400000047	2	321	1964507585	9032879	0	0	0	0	0
6776572	7288123	13166381	3986502	-400000047	-400000047	-400000047	-400000047	2	321	1964507587	9034033	9035263	0	0	0	0
6771946	7285262	13164474	3986692	-400000047	-400000047	-400000047	-400000047	2	321	1964507589	9045132	0	0	0	0	0
6774521	7286501	13166667	3989124	-400000047	-400000047	-400000047	-400000047	2	321	1964507591	9045203	0	0	0	0	0
6772995	7284880	13163043	3985310	-400000047	-400000047	-400000047	-400000047	2	321	1964507593	9045229	0	0	0	0	0
6774617	7286930	13162757	3984880	-400000047	-400000047	-400000047	-400000047	2	321	1964507595	9045253	0	0	0	0	0
6777621	7283974	13162280	3985214	-400000047	-400000047	-400000047	-400000047	2	321	1964507597	9045286	0	0	0	0	0
6774807	7283211	13163234	3987455	-400000047	-400000047	-400000047	-400000047	2	321	1964507599	9045311	0	0	0	0	0
6768656	7287455	13167525	3988981	-400000047	-400000047	-400000047	-400000047	2	321	1964507601	9045335	9048067	0	0	0	0
6772185	7292319	13170529	3987503	-400000047	-400000047	-400000047	-400000047	2	321	1964507603	9050398	0	0	0	0	0
6777096	7293511	13172151	3987694	-400000047	-400000047	-400000047	-400000047	2	321	1964507605	9050508	0	0	0	0	0
6776953	7291460	13165904	3985548	-400000047	-400000047	-400000047	-400000047	2	321	1964507607	9050563	0	0	0	0	0
6776619	7291031	13162900	3984737	-400000047	-400000047	-400000047	-400000047	2	321	1964507609	9050612	9052520	0	0	0	0
6773138	7287646	13161708	3987217	-400000047	-400000047	-400000047	-400000047	2	321	1964507611	9052871	0	0	0	0	0
6774235	7283163	13166572	3989029	-400000047	-400000047	-400000047	-400000047	2	321	1964507613	9052953	0	0	0	0	0
6768370	7277680	13167430	3986359	-400000047	-400000047	-400000047	-400000047	2	321	1964507615	9052998	9055697	0	0	0	0
6767464	7280732	13165189	3987503	-400000047	-400000047	-400000047	-400000047	2	321	1964507617	9056660	0	0	0	0	0
6762934	7271719	13160182	3983784	-400000047	-400000047	-400000047	-400000047	2	321	1964507619	9056715	0	0	0	0	0
6767893	7276154	13161660	3989649	-400000047	-400000047	-400000047	-400000047	2	321	1964507621	9056741	0	0	0	0	0
6766701	7280016	13155223	3987503	-400000047	-400000047	-400000047	-400000047	2	321	1964507623	9056766	9058789	0	0	0	0
6768275	7284308	13154937	3982735	-400000047	-400000047	-400000047	-400000047	2	321	1964507625	9059812	0	0	0	0	0
6778050	7284689	13164331	3990507	-400000047	-400000047	-400000047	-400000047	2	321	1964507627	9059872	0	0	0	0	0
6767607	7271910	13154031	3984404	-400000047	-400000047	-400000047	-400000047	2	321	1964507629	9062553	0	0	0	0	0
6769419	7275439	13157512	3987360	-400000047	-400000047	-400000047	-400000047	2	321	1964507631	9062646	9064167	0	0	0	0
6763411	7276249	13159324	3985882	-400000047	-400000047	-400000047	-400000047	2	321	1964507633	9097248	0	0	0	0	0
6765604	7280732	13165761	3989363	-400000047	-400000047	-400000047	-400000047	2	321	1964507635	9097348	0	0	0	0	0
6770993	7287693	13169480	3994417	-400000047	-400000047	-400000047	-400000047	2	321	1964507637	9097393	9097908	0	0	0	0
6765747	7285357	13163949	3991318	-400000047	-400000047	-400000047	-400000047	2	321	1964507639	9099537	0	0	0	0	0
6760741	7278252	13157273	3985786	-400000047	-400000047	-400000047	-400000047	2	321	1964507641	9099665	9100264	0	0	0	0
6762505	7279683	13159181	3981113	-400000047	-400000047	-400000047	-400000047	2	321	1964507643	9102528	0	0	0	0	0
6760550	7272435	13152553	3974867	-400000047	-400000047	-400000047	-400000047	2	321	1964507645	9102585	0	0	0	0	0
6763554	7276249	13152934	3983402	-400000047	-400000047	-400000047	-400000047	2	321	1964507647	9102612	0	0	0	0	0
6760741	7276869	13153649	3981352	-400000047	-400000047	-400000047	-400000047	2	321	1964507649	9105102	0	0	0	0	0
6758356	7272864	13152124	3980207	-400000047	-400000047	-400000047	-400000047	2	321	1964507651	9105161	9108069	0	0	0	0
6753493	7269574	13148118	3975296	-400000047	-400000047	-400000047	-400000047	2	321	1964507653	9108317	0	0	0	0	0
6747961	7264185	13145877	3974009	-400000047	-400000047	-400000047	-400000047	2	321	1964507655	9108364	0	0	0	0	0
6755781	7274390	13153792	3983211	-400000047	-400000047	-400000047	-400000047	2	321	1964507657	9110198	9110738	0	0	0	0
6757069	7271672	13148833	3978872	-400000047	-400000047	-400000047	-400000047	2	321	1964507659	9114052	0	0	0	0	0
6763411	7276726	13155366	3979826	-400000047	-400000047	-400000047	-400000047	2	321	1964507661	9114114	0	0	0	0	0
6761980	7270861	13152267	3973436	-400000047	-400000047	-400000047	-400000047	2	321	1964507663	9114141	0	0	0	0	0
6760645	7267380	13148929	3970289	-400000047	-400000047	-400000047	-400000047	2	321	1964507665	9114167	9115788	0	0	0	0
6758881	7264519	13143827	3971100	-400000047	-400000047	-400000047	-400000047	2	321	1964507667	9117056	9120154	0	0	0	0
6758452	7262040	13140060	3970957	-400000047	-400000047	-400000047	-400000047	2	321	1964507669	9120208	0	0	0	0	0
6758213	7262659	13146688	3972101	-400000047	-400000047	-400000047	-400000047	2	321	1964507671	9120254	0	0	0	0	0
6763220	7275343	13159896	3978491	-400000047	-400000047	-400000047	-400000047	2	321	1964507673	9120281	9122686	0	0	0	0
6771708	7278633	13165141	3982735	-400000047	-400000047	-400000047	-400000047	2	321	1964507675	9123381	0	0	0	0	0
6764698	7268668	13160850	3978443	-400000047	-400000047	-400000047	-400000047	2	321	1964507677	9123435	9125069	0	0	0	0
6746149	7260132	13147117	3967571	-400000047	-400000047	-400000047	-400000047	2	321	1964507679	9126455	0	0	0	0	0
6734944	7251263	13137389	3957939	-400000047	-400000047	-400000047	-400000047	2	321	1964507681	9126510	0	0	0	0	0
6748057	7261038	13147498	3965664	-400000047	-400000047	-400000047	-400000047	2	321	1964507683	9126537	0	0	0	0	0
6757450	7269860	13155986	3971386	-400000047	-400000047	-400000047	-400000047	2	321	1964507685	9126563	9127390	0	0	0	0
6763602	7274819	13156367	3975582	-400000047	-400000047	-400000047	-400000047	2	321	1964507687	9128934	9129560	0	0	0	0
6756831	7267142	13146688	3973532	-400000047	-400000047	-400000047	-400000047	2	321	1964507689	9132112	0	0	0	0	0
6751490	7260228	13146688	3969574	-400000047	-400000047	-400000047	-400000047	2	321	1964507691	9132160	0	0	0	0	0
6756115	7264328	13152887	3969669	-400000047	-400000047	-400000047	-400000047	2	321	1964507693	9133952	9134669	0	0	0	0
6755972	7266093	13149787	3968763	-400000047	-400000047	-400000047	-400000047	2	321	1964507695	9137794	0	0	0	0	0
6747198	7256651	13143731	3965092	-400000047	-400000047	-400000047	-400000047	2	321	1964507697	9137853	0	0	0	0	0
6748963	7257414	13149787	3966761	-400000047	-400000047	-400000047	-400000047	2	321	1964507699	9137881	0	0	0	0	0
6748772	7261420	13149930	3967428	-400000047	-400000047	-400000047	-400000047	2	321	1964507701	9137906	9139753	0	0	0	0
6747485	7257605	13142062	3962707	-400000047	-400000047	-400000047	-400000047	2	321	1964507703	9142026	0	0	0	0	0
6749344	7254029	13135482	3957748	-400000047	-400000047	-400000047	-400000047	2	321	1964507705	9142087	9144632	0	0	0	0
6756115	7259655	13143684	3965664	-400000047	-400000047	-400000047	-400000047	2	321	1964507707	9178403	0	0	0	0	0
6751681	7259751	13145925	3966618	-400000047	-400000047	-400000047	-400000047	2	321	1964507709	9178498	9179645	0	0	0	0
6743145	7254696	13138534	3962183	-400000047	-400000047	-400000047	-400000047	2	321	1964507711	9180914	0	0	0	0	0
6747198	7256461	13135482	3959799	-400000047	-400000047	-400000047	-400000047	2	321	1964507713	9181015	9181855	0	0	0	0
6752348	7256222	13133670	3961229	-400000047	-400000047	-400000047	-400000047	2	321	1964507715	9186388	0	0	0	0	0
6752348	7258559	13133288	3961325	-400000047	-400000047	-400000047	-400000047	2	321	1964507717	9186475	0	0	0	0	0
6746912	7263708	13142491	3965330	-400000047	-400000047	-400000047	-400000047	2	321	1964507719	9186524	0	0	0	0	0
6744337	7254649	13142158	3963280	-400000047	-400000047	-400000047	-400000047	2	321	1964507721	9186567	0	0	0	0	0
6754160	7254315	13144160	3969145	-400000047	-400000047	-400000047	-400000047	2	321	1964507723	9186620	0	0	0	0	0
6754875	7257223	13146020	3967476	-400000047	-400000047	-400000047	-400000047	2	321	1964507725	9186661	0	0	0	0	0
6754065	7256461	13147880	3968716	-400000047	-400000047	-400000047	-400000047	2	321	1964507727	9186689	9187980	0	0	0	0
6756163	7258988	13148404	3971624	-400000047	-400000047	-400000047	-400000047	2	321	1964507729	9188836	0	0	0	0	0
6753254	7254744	13142539	3968382	-400000047	-400000047	-400000047	-400000047	2	321	1964507731	9188896	9190389	0	0	0	0
6745148	7253504	13140632	3967667	-400000047	-400000047	-400000047	-400000047	2	321	1964507733	9192128	0	0	0	0	0
6748247	7260704	13147164	3968906	-400000047	-400000047	-400000047	-400000047	2	321	1964507735	9192197	0	0	0	0	0
6753064	7264567	13151837	3968954	-400000047	-400000047	-400000047	-400000047	2	321	1964507737	9192227	9192869	0	0	0	0
6750012	7253361	13142968	3965855	-400000047	-400000047	-400000047	-400000047	2	321	1964507739	9196615	0	0	0	0	0
6752444	7253790	13140632	3966904	-400000047	-400000047	-400000047	-400000047	2	321	1964507741	9196675	0	0	0	0	0
6753445	7259083	13142968	3973150	-400000047	-400000047	-400000047	-400000047	2	321	1964507743	9196703	0	0	0	0	0
6753493	7259417	13143254	3972006	-400000047	-400000047	-400000047	-400000047	2	321	1964507745	9196737	9197754	0	0	0	0
6752920	7261658	13144303	3969908	-400000047	-400000047	-400000047	-400000047	2	321	1964507747	9200216	0	0	0	0	0
6746722	7266236	13147355	3967905	-400000047	-400000047	-400000047	-400000047	2	321	1964507749	9200286	0	0	0	0	0
6740713	7259465	13140250	3960419	-400000047	-400000047	-400000047	-400000047	2	321	1964507751	9200315	9202750	0	0	0	0
6741667	7252837	13136150	3957653	-400000047	-400000047	-400000047	-400000047	2	321	1964507753	9203277	0	0	0	0	0
6744051	7252264	13132764	3954935	-400000047	-400000047	-400000047	-400000047	2	321	1964507755	9203325	0	0	0	0	0
6745196	7256937	13123418	3953886	-400000047	-400000047	-400000047	-400000047	2	321	1964507757	9203359	9205272	0	0	0	0
6741000	7255268	13109399	3947401	-400000047	-400000047	-400000047	-400000047	2	321	1964507759	9205924	0	0	0	0	0
6741953	7260132	13119413	3955030	-400000047	-400000047	-400000047	-400000047	2	321	1964507761	9205999	9207399	0	0	0	0
6741667	7256556	13131477	3958130	-400000047	-400000047	-400000047	-400000047	2	321	1964507763	9208308	0	0	0	0	0
6753159	7260704	13147403	3969908	-400000047	-400000047	-400000047	-400000047	2	321	1964507765	9208391	9209906	0	0	0	0
6767416	7265377	13155032	3976297	-400000047	-400000047	-400000047	-400000047	2	321	1964507767	9213302	0	0	0	0	0
6774664	7272339	13165523	3986454	-400000047	-400000047	-400000047	-400000047	2	321	1964507769	9213378	0	0	0	0	0
6765509	7273722	13170339	3984690	-400000047	-400000047	-400000047	-400000047	2	321	1964507771	9213405	9214610	0	0	0	0
6759882	7272959	13167907	3980303	-400000047	-400000047	-400000047	-400000047	2	321	1964507773	9215822	0	0	0	0	0
6762886	7276631	13160277	3977203	-400000047	-400000047	-400000047	-400000047	2	321	1964507775	9215925	9216845	0	0	0	0
6750870	7265139	13138295	3968191	-400000047	-400000047	-400000047	-400000047	2	321	1964507777	9217959	0	0	0	0	0
6746674	7264901	13128806	3967810	-400000047	-400000047	-400000047	-400000047	2	321	1964507779	9218040	9220068	0	0	0	0
6752301	7271719	13137723	3977823	-400000047	-400000047	-400000047	-400000047	2	321	1964507781	9224762	0	0	0	0	0
6752444	7278395	13155557	3986788	-400000047	-400000047	-400000047	-400000047	2	321	1964507783	9224871	0	0	0	0	0
6755638	7285118	13158895	3988457	-400000047	-400000047	-400000047	-400000047	2	321	1964507785	9224922	9226899	0	0	0	0
6766558	7282925	13154412	3986073	-400000047	-400000047	-400000047	-400000047	2	321	1964507787	9259159	0	0	0	0	0
6767369	7276822	13145209	3980684	-400000047	-400000047	-400000047	-400000047	2	321	1964507789	9259264	0	0	0	0	0
6763649	7273388	13143970	3978825	-400000047	-400000047	-400000047	-400000047	2	321	1964507791	9259294	0	0	0	0	0
6761027	7269192	13145305	3981256	-400000047	-400000047	-400000047	-400000047	2	321	1964507793	9259329	9259749	0	0	0	0
6761599	7268000	13147308	3981400	-400000047	-400000047	-400000047	-400000047	2	321	1964507795	9262090	0	0	0	0	0
6758261	7265473	13147021	3976583	-400000047	-400000047	-400000047	-400000047	2	321	1964507797	9262200	9263463	0	0	0	0
6760788	7272435	13152696	3981304	-400000047	-400000047	-400000047	-400000047	2	321	1964507799	9265257	0	0	0	0	0
6767607	7279635	13157369	3986216	-400000047	-400000047	-400000047	-400000047	2	321	1964507801	9265365	0	0	0	0	0
6771136	7278633	13157846	3988361	-400000047	-400000047	-400000047	-400000047	2	321	1964507803	9265394	9266285	0	0	0	0
6764126	7276535	13153316	3987455	-400000047	-400000047	-400000047	-400000047	2	321	1964507805	9268445	0	0	0	0	0
6757927	7274580	13147308	3981876	-400000047	-400000047	-400000047	-400000047	2	321	1964507807	9268537	9269399	0	0	0	0
6751633	7268763	13144399	3979921	-400000047	-400000047	-400000047	-400000047	2	321	1964507809	9270858	0	0	0	0	0
6742716	7256794	13135148	3975344	-400000047	-400000047	-400000047	-400000047	2	321	1964507811	9270944	9272029	0	0	0	0
6743288	7256079	13135100	3974152	-400000047	-400000047	-400000047	-400000047	2	321	1964507813	9273966	0	0	0	0	0
6755877	7270146	13139392	3977680	-400000047	-400000047	-400000047	-400000047	2	321	1964507815	9274047	0	0	0	0	0
6761551	7277251	13139058	3975964	-400000047	-400000047	-400000047	-400000047	2	321	1964507817	9274075	0	0	0	0	0
6767416	7282114	13145114	3977919	-400000047	-400000047	-400000047	-400000047	2	321	1964507819	9274100	9274769	0	0	0	0
6755257	7280398	13144446	3980255	-400000047	-400000047	-400000047	-400000047	2	321	1964507821	9277100	0	0	0	0	0
6738520	7280732	13142968	3981113	-400000047	-400000047	-400000047	-400000047	2	321	1964507823	9277266	0	0	0	0	0
6732989	7276059	13137151	3975677	-400000047	-400000047	-400000047	-400000047	2	321	1964507825	9277339	9279625	0	0	0	0
6737900	7267905	13129378	3975201	-400000047	-400000047	-400000047	-400000047	2	321	1964507827	9279588	0	0	0	0	0
6722546	7246304	13111402	3958511	-400000047	-400000047	-400000047	-400000047	2	321	1964507829	9279645	9281667	0	0	0	0
6720114	7245016	13115073	3952694	-400000047	-400000047	-400000047	-400000047	2	321	1964507831	9282146	0	0	0	0	0
6726170	7252694	13123513	3955173	-400000047	-400000047	-400000047	-400000047	2	321	1964507833	9283984	0	0	0	0	0
6733942	7266093	13131477	3963137	-400000047	-400000047	-400000047	-400000047	2	321	1964507835	9284083	9285094	0	0	0	0
6732512	7264901	13132287	3966999	-400000047	-400000047	-400000047	-400000047	2	321	1964507837	9286309	9287787	0	0	0	0
6732130	7266188	13130618	3968906	-400000047	-400000047	-400000047	-400000047	2	321	1964507839	9288946	0	0	0	0	0
6743098	7272673	13130523	3970337	-400000047	-400000047	-400000047	-400000047	2	321	1964507841	9289010	9289834	0	0	0	0
6738091	7264328	13115550	3961611	-400000047	-400000047	-400000047	-400000047	2	321	1964507843	9292530	0	0	0	0	0
6717396	7243681	13094140	3947449	-400000047	-400000047	-400000047	-400000047	2	321	1964507845	9292595	0	0	0	0	0
6720591	7249785	13102866	3950977	-400000047	-400000047	-400000047	-400000047	2	321	1964507847	9292647	9294019	0	0	0	0
6735373	7265282	13117839	3959513	-400000047	-400000047	-400000047	-400000047	2	321	1964507849	9295014	0	0	0	0	0
6739092	7273293	13127471	3961468	-400000047	-400000047	-400000047	-400000047	2	321	1964507851	9295081	9296454	0	0	0	0
6739664	7278967	13138820	3970575	-400000047	-400000047	-400000047	-400000047	2	321	1964507853	9299122	0	0	0	0	0
6733990	7268381	13135768	3967905	-400000047	-400000047	-400000047	-400000047	2	321	1964507855	9299206	0	0	0	0	0
6735373	7270623	13131572	3966665	-400000047	-400000047	-400000047	-400000047	2	321	1964507857	9299249	9300972	0	0	0	0
6738472	7271386	13125421	3964472	-400000047	-400000047	-400000047	-400000047	2	321	1964507859	9302711	0	0	0	0	0
6738711	7275486	13121320	3966522	-400000047	-400000047	-400000047	-400000047	2	321	1964507861	9302772	0	0	0	0	0
6736422	7274008	13120366	3968048	-400000047	-400000047	-400000047	-400000047	2	321	1964507863	9302812	0	0	0	0	0
6738377	7277441	13128902	3970337	-400000047	-400000047	-400000047	-400000047	2	321	1964507865	9302843	9303609	0	0	0	0
6741715	7280684	13131953	3971672	-400000047	-400000047	-400000047	-400000047	2	321	1964507867	9306447	0	0	0	0	0
6737852	7282782	13132526	3976822	-400000047	-400000047	-400000047	-400000047	2	321	1964507869	9306525	0	0	0	0	0
6725121	7274580	13122178	3968382	-400000047	-400000047	-400000047	-400000047	2	321	1964507871	9306552	9308639	0	0	0	0
6732703	7272625	13122464	3970909	-400000047	-400000047	-400000047	-400000047	2	321	1964507873	9308765	0	0	0	0	0
6732416	7266951	13121892	3971434	-400000047	-400000047	-400000047	-400000047	2	321	1964507875	9308824	9310900	0	0	0	0
6738234	7275582	13127376	3977108	-400000047	-400000047	-400000047	-400000047	2	321	1964507877	9312033	9313481	0	0	0	0
6738139	7276917	13121797	3970289	-400000047	-400000047	-400000047	-400000047	2	321	1964507879	9321423	0	0	0	0	0
6746102	7282114	13124133	3974771	-400000047	-400000047	-400000047	-400000047	2	321	1964507881	9321511	0	0	0	0	0
6744194	7281018	13126899	3972244	-400000047	-400000047	-400000047	-400000047	2	321	1964507883	9321559	0	0	0	0	0
6740046	7279444	13127566	3969336	-400000047	-400000047	-400000047	-400000047	2	321	1964507885	9321603	9323864	0	0	0	0
6742239	7285262	13132001	3973484	-400000047	-400000047	-400000047	-400000047	2	321	1964507887	9328006	0	0	0	0	0
6746006	7289505	13132049	3975916	-400000047	-400000047	-400000047	-400000047	2	321	1964507889	9328080	0	0	0	0	0
6751728	7294178	13133718	3980064	-400000047	-400000047	-400000047	-400000047	2	321	1964507891	9328121	0	0	0	0	0
6742573	7284403	13124229	3967762	-400000047	-400000047	-400000047	-400000047	2	321	1964507893	9328172	9329018	0	0	0	0
6732798	7275057	13114596	3959322	-400000047	-400000047	-400000047	-400000047	2	321	1964507895	9334019	0	0	0	0	0
6732035	7277775	13116027	3960609	-400000047	-400000047	-400000047	-400000047	2	321	1964507897	9334142	9334819	0	0	0	0
6733942	7283450	13119031	3962707	-400000047	-400000047	-400000047	-400000047	2	321	1964507899	9342763	0	0	0	0	0
6736708	7284546	13122464	3964329	-400000047	-400000047	-400000047	-400000047	2	321	1964507901	9342840	0	0	0	0	0
6739807	7285643	13127280	3963709	-400000047	-400000047	-400000047	-400000047	2	321	1964507903	9342876	0	0	0	0	0
6741286	7285309	13124753	3966951	-400000047	-400000047	-400000047	-400000047	2	321	1964507905	9342907	9343715	0	0	0	0
6738472	7284117	13119937	3969240	-400000047	-400000047	-400000047	-400000047	2	321	1964507907	9347110	9347848	0	0	0	0
6736565	7284069	13118316	3966188	-400000047	-400000047	-400000047	-400000047	2	321	1964507909	9355863	0	0	0	0	0
6738901	7284928	13121225	3967094	-400000047	-400000047	-400000047	-400000047	2	321	1964507911	9355951	0	0	0	0	0
6746292	7294321	13129474	3970289	-400000047	-400000047	-400000047	-400000047	2	321	1964507913	9355986	9358059	0	0	0	0
6751585	7302094	13132621	3972340	-400000047	-400000047	-400000047	-400000047	2	321	1964507915	9358917	0	0	0	0	0
6747914	7301855	13129712	3973389	-400000047	-400000047	-400000047	-400000047	2	321	1964507917	9359000	0	0	0	0	0
6746865	7305479	13126041	3973532	-400000047	-400000047	-400000047	-400000047	2	321	1964507919	9359038	0	0	0	0	0
6738615	7296372	13116790	3962946	-400000047	-400000047	-400000047	-400000047	2	321	1964507921	9359067	9363929	0	0	0	0
6735754	7282496	13116647	3958416	-400000047	-400000047	-400000047	-400000047	2	321	1964507923	9366591	0	0	0	0	0
6741667	7283402	13121749	3960752	-400000047	-400000047	-400000047	-400000047	2	321	1964507925	9366708	0	0	0	0	0
6737137	7286120	13120175	3958416	-400000047	-400000047	-400000047	-400000047	2	321	1964507927	9366748	0	0	0	0	0
6742430	7294321	13126756	3959846	-400000047	-400000047	-400000047	-400000047	2	321	1964507929	9366796	9368883	0	0	0	0
6750155	7299519	13133002	3964090	-400000047	-400000047	-400000047	-400000047	2	321	1964507931	9369706	0	0	0	0	0
6753874	7304049	13134528	3968143	-400000047	-400000047	-400000047	-400000047	2	321	1964507933	9371260	0	0	0	0	0
6762123	7314873	13137580	3971243	-400000047	-400000047	-400000047	-400000047	2	321	1964507935	9375252	0	0	0	0	0
6748772	7304383	13121654	3960037	-400000047	-400000047	-400000047	-400000047	2	321	1964507937	9375326	0	0	0	0	0
6743479	7299233	13112451	3959465	-400000047	-400000047	-400000047	-400000047	2	321	1964507939	9375369	9376488	0	0	0	0
6749010	7307721	13116456	3961563	-400000047	-400000047	-400000047	-400000047	2	321	1964507941	9379689	0	0	0	0	0
6742192	7308054	13118268	3961992	-400000047	-400000047	-400000047	-400000047	2	321	1964507943	9379810	0	0	0	0	0
6737519	7305241	13122989	3964138	-400000047	-400000047	-400000047	-400000047	2	321	1964507945	9379860	9381828	0	0	0	0
6753159	7309008	13130094	3970814	-400000047	-400000047	-400000047	-400000047	2	321	1964507947	9385835	9388232	0	0	0	0
6764698	7312107	13136531	3973865	-400000047	-400000047	-400000047	-400000047	2	321	1964507949	9393827	9394555	0	0	0	0
6763649	7313013	13139154	3972769	-400000047	-400000047	-400000047	-400000047	2	321	1964507951	9401298	0	0	0	0	0
6756687	7318926	13138963	3974009	-400000047	-400000047	-400000047	-400000047	2	321	1964507953	9401398	0	0	0	0	0
6743098	7313443	13135816	3969383	-400000047	-400000047	-400000047	-400000047	2	321	1964507955	9401452	0	0	0	0	0
6745625	7311774	13134814	3967714	-400000047	-400000047	-400000047	-400000047	2	321	1964507957	9401486	0	0	0	0	0
6756878	7320261	13141538	3976011	-400000047	-400000047	-400000047	-400000047	2	321	1964507959	9404518	9409313	0	0	0	0
6750727	7311488	13132812	3971434	-400000047	-400000047	-400000047	-400000047	2	321	1964507961	9411557	0	0	0	0	0
6740237	7301474	13122846	3963518	-400000047	-400000047	-400000047	-400000047	2	321	1964507963	9411645	0	0	0	0	0
6741953	7312203	13126327	3965235	-400000047	-400000047	-400000047	-400000047	2	321	1964507965	9411690	0	0	0	0	0
6741715	7319928	13128091	3963661	-400000047	-400000047	-400000047	-400000047	2	321	1964507967	9411735	9412171	0	0	0	0
6754971	7340002	13140203	3972816	-400000047	-400000047	-400000047	-400000047	2	321	1964507969	9415338	0	0	0	0	0
6761217	7346440	13142158	3974724	-400000047	-400000047	-400000047	-400000047	2	321	1964507971	9415427	0	0	0	0	0
6758023	7331896	13133670	3966045	-400000047	-400000047	-400000047	-400000047	2	321	1964507973	9415468	0	0	0	0	0
6749678	7320595	13121701	3955889	-400000047	-400000047	-400000047	-400000047	2	321	1964507975	9415508	0	0	0	0	0
6748820	7320643	13112832	3952360	-400000047	-400000047	-400000047	-400000047	2	321	1964507977	9415559	9416850	0	0	0	0
6750250	7325840	13115264	3956985	-400000047	-400000047	-400000047	-400000047	2	321	1964507979	9417550	9419398	0	0	0	0
6754875	7332230	13124372	3968048	-400000047	-400000047	-400000047	-400000047	2	321	1964507981	9420807	0	0	0	0	0
6753159	7335949	13130571	3968620	-400000047	-400000047	-400000047	-400000047	2	321	1964507983	9420875	0	0	0	0	0
6752158	7338667	13136483	3966713	-400000047	-400000047	-400000047	-400000047	2	321	1964507985	9420910	0	0	0	0	0
6741286	7334757	13137056	3964424	-400000047	-400000047	-400000047	-400000047	2	321	1964507987	9423264	0	0	0	0	0
6738901	7336092	13136150	3965521	-400000047	-400000047	-400000047	-400000047	2	321	1964507989	9423319	0	0	0	0	0
6744337	7336951	13133861	3966331	-400000047	-400000047	-400000047	-400000047	2	321	1964507991	9425769	0	0	0	0	0
6739426	7329893	13125135	3958797	-400000047	-400000047	-400000047	-400000047	2	321	1964507993	9425838	9431265	0	0	0	0
6741476	7324267	13119174	3954649	-400000047	-400000047	-400000047	-400000047	2	321	1964507995	9459766	9461641	0	0	0	0
6740761	7322693	13114740	3954458	-400000047	-400000047	-400000047	-400000047	2	321	1964507997	9462726	0	0	0	0	0
6746817	7327128	13121892	3959846	-400000047	-400000047	-400000047	-400000047	2	321	1964507999	9462785	0	0	0	0	0
6752968	7332135	13136102	3966475	-400000047	-400000047	-400000047	-400000047	2	321	1964508001	9462813	0	0	0	0	0
6753493	7335472	13145019	3971481	-400000047	-400000047	-400000047	-400000047	2	321	1964508003	9462838	0	0	0	0	0
6754875	7335711	13141776	3974104	-400000047	-400000047	-400000047	-400000047	2	321	1964508005	9465833	0	0	0	0	0
6751728	7336283	13130857	3965902	-400000047	-400000047	-400000047	-400000047	2	321	1964508007	9465945	0	0	0	0	0
6744194	7334710	13120795	3955984	-400000047	-400000047	-400000047	-400000047	2	321	1964508009	9465994	9467099	0	0	0	0
6740475	7335616	13120366	3952789	-400000047	-400000047	-400000047	-400000047	2	321	1964508011	9468988	0	0	0	0	0
6733370	7330084	13117744	3951120	-400000047	-400000047	-400000047	-400000047	2	321	1964508013	9469076	0	0	0	0	0
6737328	7332898	13122035	3954411	-400000047	-400000047	-400000047	-400000047	2	321	1964508015	9469105	0	0	0	0	0
6744623	7338190	13133193	3963518	-400000047	-400000047	-400000047	-400000047	2	321	1964508017	9472041	0	0	0	0	0
6753493	7349682	13145257	3968668	-400000047	-400000047	-400000047	-400000047	2	321	1964508019	9472109	0	0	0	0	0
6748581	7345963	13138677	3963137	-400000047	-400000047	-400000047	-400000047	2	321	1964508021	9472160	0	0	0	0	0
6751061	7347632	13135148	3961563	-400000047	-400000047	-400000047	-400000047	2	321	1964508023	9474574	0	0	0	0	0
6756974	7356739	13140346	3966761	-400000047	-400000047	-400000047	-400000047	2	321	1964508025	9474654	9475693	0	0	0	0
6749726	7344818	13133241	3964138	-400000047	-400000047	-400000047	-400000047	2	321	1964508027	9476255	9478423	0	0	0	0
6747294	7342625	13132621	3962660	-400000047	-400000047	-400000047	-400000047	2	321	1964508029	9479523	0	0	0	0	0
6750155	7346774	13132478	3959799	-400000047	-400000047	-400000047	-400000047	2	321	1964508031	9479585	9480829	0	0	0	0
6746245	7344389	13125135	3953409	-400000047	-400000047	-400000047	-400000047	2	321	1964508033	9481266	0	0	0	0	0
6751108	7353259	13134433	3958273	-400000047	-400000047	-400000047	-400000047	2	321	1964508035	9481319	9483158	0	0	0	0
6757355	7357550	13141681	3964376	-400000047	-400000047	-400000047	-400000047	2	321	1964508037	9484001	0	0	0	0	0
6756401	7352686	13142730	3964853	-400000047	-400000047	-400000047	-400000047	2	321	1964508039	9484093	0	0	0	0	0
6752634	7348824	13137771	3968048	-400000047	-400000047	-400000047	-400000047	2	321	1964508041	9487022	0	0	0	0	0
6746722	7339239	13129283	3961611	-400000047	-400000047	-400000047	-400000047	2	321	1964508043	9487091	9487693	0	0	0	0
6744623	7342959	13131715	3960848	-400000047	-400000047	-400000047	-400000047	2	321	1964508045	9489510	0	0	0	0	0
6747341	7354498	13141442	3964472	-400000047	-400000047	-400000047	-400000047	2	321	1964508047	9489578	0	0	0	0	0
6748247	7351303	13142539	3965521	-400000047	-400000047	-400000047	-400000047	2	321	1964508049	9489625	9491777	0	0	0	0
6750870	7350159	13145209	3967047	-400000047	-400000047	-400000047	-400000047	2	321	1964508051	9492622	0	0	0	0	0
6753493	7350111	13145019	3964186	-400000047	-400000047	-400000047	-400000047	2	321	1964508053	9492688	0	0	0	0	0
6753350	7349015	13140250	3965902	-400000047	-400000047	-400000047	-400000047	2	321	1964508055	9492738	9494475	0	0	0	0
6747485	7345581	13129855	3959131	-400000047	-400000047	-400000047	-400000047	2	321	1964508057	9496319	9496753	0	0	0	0
6744099	7344342	13124992	3955317	-400000047	-400000047	-400000047	-400000047	2	321	1964508059	9505102	0	0	0	0	0
6749678	7347155	13132859	3958416	-400000047	-400000047	-400000047	-400000047	2	321	1964508061	9505182	9505556	0	0	0	0
6745577	7344866	13133575	3953171	-400000047	-400000047	-400000047	-400000047	2	321	1964508063	9541125	0	0	0	0	0
6737519	7340527	13130714	3949165	-400000047	-400000047	-400000047	-400000047	2	321	1964508065	9541218	0	0	0	0	0
6736422	7341576	13131715	3951979	-400000047	-400000047	-400000047	-400000047	2	321	1964508067	9541267	0	0	0	0	0
6747961	7349682	13137723	3956938	-400000047	-400000047	-400000047	-400000047	2	321	1964508069	9541313	0	0	0	0	0
6748820	7348204	13132764	3950787	-400000047	-400000047	-400000047	-400000047	2	321	1964508071	9541370	9542025	0	0	0	0
6739331	7338477	13122560	3944063	-400000047	-400000047	-400000047	-400000047	2	321	1964508073	9544049	0	0	0	0	0
6734515	7337714	13122417	3942013	-400000047	-400000047	-400000047	-400000047	2	321	1964508075	9544144	0	0	0	0	0
6735230	7334376	13120557	3938389	-400000047	-400000047	-400000047	-400000047	2	321	1964508077	9544189	9545043	0	0	0	0
6733513	7333851	13114549	3935003	-400000047	-400000047	-400000047	-400000047	2	321	1964508079	9548652	0	0	0	0	0
6732989	7327652	13104488	3927088	-400000047	-400000047	-400000047	-400000047	2	321	1964508081	9548741	0	0	0	0	0
6739331	7331658	13108207	3933859	-400000047	-400000047	-400000047	-400000047	2	321	1964508083	9548789	0	0	0	0	0
6734753	7337380	13111735	3938055	-400000047	-400000047	-400000047	-400000047	2	321	1964508085	9548836	0	0	0	0	0
6723070	7333565	13108064	3930235	-400000047	-400000047	-400000047	-400000047	2	321	1964508087	9548893	0	0	0	0	0
6719303	7327509	13109637	3926945	-400000047	-400000047	-400000047	-400000047	2	321	1964508089	9548939	9550137	0	0	0	0
6727171	7331658	13124610	3939676	-400000047	-400000047	-400000047	-400000047	2	321	1964508091	9550053	9552163	0	0	0	0
6735516	7338095	13134719	3949594	-400000047	-400000047	-400000047	-400000047	2	321	1964508093	9552698	9554232	0	0	0	0
6734038	7339192	13129712	3946018	-400000047	-400000047	-400000047	-400000047	2	321	1964508095	9555854	0	0	0	0	0
6733561	7339192	13126804	3942251	-400000047	-400000047	-400000047	-400000047	2	321	1964508097	9555968	9556739	0	0	0	0
6733465	7338572	13125564	3941441	-400000047	-400000047	-400000047	-400000047	2	321	1964508099	9558954	0	0	0	0	0
6732846	7341719	13127042	3943968	-400000047	-400000047	-400000047	-400000047	2	321	1964508101	9559031	0	0	0	0	0
6738139	7340956	13126947	3940630	-400000047	-400000047	-400000047	-400000047	2	321	1964508103	9559069	0	0	0	0	0
6737614	7337046	13121511	3940248	-400000047	-400000047	-400000047	-400000047	2	321	1964508105	9559100	9560942	0	0	0	0
6736183	7337809	13120175	3936434	-400000047	-400000047	-400000047	-400000047	2	321	1964508107	9561251	9563093	0	0	0	0
6739617	7346678	13129808	3941584	-400000047	-400000047	-400000047	-400000047	2	321	1964508109	9563778	0	0	0	0	0
6737900	7347155	13130571	3945017	-400000047	-400000047	-400000047	-400000047	2	321	1964508111	9563831	9565714	0	0	0	0
6750012	7356358	13134862	3949928	-400000047	-400000047	-400000047	-400000047	2	321	1964508113	9567045	0	0	0	0	0
6761456	7366181	13147927	3957844	-400000047	-400000047	-400000047	-400000047	2	321	1964508115	9567121	9568440	0	0	0	0
6761456	7362748	13149835	3957224	-400000047	-400000047	-400000047	-400000047	2	321	1964508117	9569592	0	0	0	0	0
6759215	7357502	13144780	3952646	-400000047	-400000047	-400000047	-400000047	2	321	1964508119	9569677	0	0	0	0	0
6754780	7354355	13139487	3951740	-400000047	-400000047	-400000047	-400000047	2	321	1964508121	9569716	9570486	0	0	0	0
6753969	7355881	13139535	3957224	-400000047	-400000047	-400000047	-400000047	2	321	1964508123	9572015	9572328	0	0	0	0
6760311	7362557	13145352	3961229	-400000047	-400000047	-400000047	-400000047	2	321	1964508125	9572142	9574646	0	0	0	0
6756401	7358647	13142348	3954506	-400000047	-400000047	-400000047	-400000047	2	321	1964508127	9574575	0	0	0	0	0
6751013	7358694	13135387	3947782	-400000047	-400000047	-400000047	-400000047	2	321	1964508129	9574642	0	0	0	0	0
6753588	7368184	13138248	3954458	-400000047	-400000047	-400000047	-400000047	2	321	1964508131	9576286	9576969	0	0	0	0
6753254	7363701	13134910	3948116	-400000047	-400000047	-400000047	-400000047	2	321	1964508133	9580904	0	0	0	0	0
6754160	7359934	13135863	3946209	-400000047	-400000047	-400000047	-400000047	2	321	1964508135	9580984	0	0	0	0	0
6756831	7362461	13143827	3949547	-400000047	-400000047	-400000047	-400000047	2	321	1964508137	9581027	0	0	0	0	0
6753016	7354594	13139392	3944349	-400000047	-400000047	-400000047	-400000047	2	321	1964508139	9581072	0	0	0	0	0
6747198	7352734	13129855	3937197	-400000047	-400000047	-400000047	-400000047	2	321	1964508141	9581134	0	0	0	0	0
6748104	7359553	13127137	3940153	-400000047	-400000047	-400000047	-400000047	2	321	1964508143	9582527	9583098	0	0	0	0
6744862	7359648	13130904	3944302	-400000047	-400000047	-400000047	-400000047	2	321	1964508145	9586510	0	0	0	0	0
6735659	7351876	13131572	3944111	-400000047	-400000047	-400000047	-400000047	2	321	1964508147	9586633	0	0	0	0	0
6735993	7346917	13134862	3940868	-400000047	-400000047	-400000047	-400000047	2	321	1964508149	9586676	0	0	0	0	0
6741000	7344532	13133432	3939867	-400000047	-400000047	-400000047	-400000047	2	321	1964508151	9586709	9587679	0	0	0	0
6744433	7347155	13131858	3938198	-400000047	-400000047	-400000047	-400000047	2	321	1964508153	9589536	0	0	0	0	0
6747818	7354641	13135196	3936958	-400000047	-400000047	-400000047	-400000047	2	321	1964508155	9589618	9591483	0	0	0	0
6742287	7356644	13135673	3934526	-400000047	-400000047	-400000047	-400000047	2	321	1964508157	9596010	0	0	0	0	0
6731749	7349110	13123466	3930140	-400000047	-400000047	-400000047	-400000047	2	321	1964508159	9596101	9596642	0	0	0	0
6734848	7356263	13124992	3935957	-400000047	-400000047	-400000047	-400000047	2	321	1964508161	9604094	0	0	0	0	0
6740380	7361603	13131667	3943348	-400000047	-400000047	-400000047	-400000047	2	321	1964508163	9604205	9606976	0	0	0	0
6742812	7357073	13135959	3944492	-400000047	-400000047	-400000047	-400000047	2	321	1964508165	9609019	0	0	0	0	0
6735468	7342005	13131429	3938818	-400000047	-400000047	-400000047	-400000047	2	321	1964508167	9609079	0	0	0	0	0
6742573	7345724	13138009	3940296	-400000047	-400000047	-400000047	-400000047	2	321	1964508169	9609109	9609496	0	0	0	0
6738568	7347489	13132764	3934526	-400000047	-400000047	-400000047	-400000047	2	321	1964508171	9613524	0	0	0	0	0
6729603	7346487	13124848	3930378	-400000047	-400000047	-400000047	-400000047	2	321	1964508173	9613618	0	0	0	0	0
6726218	7346583	13123799	3930616	-400000047	-400000047	-400000047	-400000047	2	321	1964508175	9613665	0	0	0	0	0
6728840	7343340	13125182	3933859	-400000047	-400000047	-400000047	-400000047	2	321	1964508177	9613704	0	0	0	0	0
6732798	7347298	13126994	3939915	-400000047	-400000047	-400000047	-400000047	2	321	1964508179	9613744	0	0	0	0	0
6733513	7346821	13127233	3937530	-400000047	-400000047	-400000047	-400000047	2	321	1964508181	9613777	0	0	0	0	0
6741286	7349396	13131333	3938055	-400000047	-400000047	-400000047	-400000047	2	321	1964508183	9615022	9616188	0	0	0	0
6744623	7354689	13127233	3935003	-400000047	-400000047	-400000047	-400000047	2	321	1964508185	9619011	9619508	0	0	0	0
6748104	7364941	13129998	3940487	-400000047	-400000047	-400000047	-400000047	2	321	1964508187	9652596	0	0	0	0	0
6745386	7357741	13130046	3939581	-400000047	-400000047	-400000047	-400000047	2	321	1964508189	9652673	9654686	0	0	0	0
6720734	7334185	13112689	3917360	-400000047	-400000047	-400000047	-400000047	2	321	1964508191	9657621	0	0	0	0	0
6717015	7337809	13116552	3920746	-400000047	-400000047	-400000047	-400000047	2	321	1964508193	9657707	0	0	0	0	0
6727600	7342863	13121129	3928137	-400000047	-400000047	-400000047	-400000047	2	321	1964508195	9657742	0	0	0	0	0
6738329	7357026	13134242	3935909	-400000047	-400000047	-400000047	-400000047	2	321	1964508197	9657770	0	0	0	0	0
6737137	7360840	13135863	3938723	-400000047	-400000047	-400000047	-400000047	2	321	1964508199	9657823	0	0	0	0	0
6740332	7358504	13130857	3939819	-400000047	-400000047	-400000047	-400000047	2	321	1964508201	9657876	9659841	0	0	0	0
6734515	7353020	13123323	3929615	-400000047	-400000047	-400000047	-400000047	2	321	1964508203	9660140	0	0	0	0	0
6734228	7358456	13127423	3928804	-400000047	-400000047	-400000047	-400000047	2	321	1964508205	9660176	0	0	0	0	0
6726170	7349491	13127280	3927994	-400000047	-400000047	-400000047	-400000047	2	321	1964508207	9660204	9662062	0	0	0	0
6717635	7331038	13119365	3919649	-400000047	-400000047	-400000047	-400000047	2	321	1964508209	9663352	0	0	0	0	0
6717158	7329035	13111211	3915787	-400000047	-400000047	-400000047	-400000047	2	321	1964508211	9663407	0	0	0	0	0
6716538	7330132	13107205	3913832	-400000047	-400000047	-400000047	-400000047	2	321	1964508213	9663439	9663991	0	0	0	0
6730700	7342005	13120223	3922749	-400000047	-400000047	-400000047	-400000047	2	321	1964508215	9666132	9668627	0	0	0	0
6729412	7340098	13120319	3922367	-400000047	-400000047	-400000047	-400000047	2	321	1964508217	9668352	0	0	0	0	0
6733132	7347727	13125516	3923702	-400000047	-400000047	-400000047	-400000047	2	321	1964508219	9668408	0	0	0	0	0
6744433	7361889	13132239	3926134	-400000047	-400000047	-400000047	-400000047	2	321	1964508221	9668445	9670756	0	0	0	0
6745625	7365990	13125898	3922653	-400000047	-400000047	-400000047	-400000047	2	321	1964508223	9671650	0	0	0	0	0
6741238	7365179	13122989	3927374	-400000047	-400000047	-400000047	-400000047	2	321	1964508225	9671736	9673126	0	0	0	0
6728697	7352400	13120557	3927040	-400000047	-400000047	-400000047	-400000047	2	321	1964508227	9676552	0	0	0	0	0
6732369	7356406	13131477	3931808	-400000047	-400000047	-400000047	-400000047	2	321	1964508229	9676618	0	0	0	0	0
6739331	7361699	13137532	3935432	-400000047	-400000047	-400000047	-400000047	2	321	1964508231	9676664	0	0	0	0	0
6731987	7353831	13132812	3932190	-400000047	-400000047	-400000047	-400000047	2	321	1964508233	9676692	9677838	0	0	0	0
6729126	7354355	13130141	3929329	-400000047	-400000047	-400000047	-400000047	2	321	1964508235	9680204	0	0	0	0	0
6730509	7351685	13130571	3930950	-400000047	-400000047	-400000047	-400000047	2	321	1964508237	9680289	0	0	0	0	0
6732989	7350827	13126613	3931427	-400000047	-400000047	-400000047	-400000047	2	321	1964508239	9680320	9682661	0	0	0	0
6737137	7352972	13124419	3930235	-400000047	-400000047	-400000047	-400000047	2	321	1964508241	9686016	0	0	0	0	0
6736899	7351923	13124992	3929853	-400000047	-400000047	-400000047	-400000047	2	321	1964508243	9686127	0	0	0	0	0
6738043	7357836	13125421	3930759	-400000047	-400000047	-400000047	-400000047	2	321	1964508245	9686156	0	0	0	0	0
6738377	7361699	13124372	3930855	-400000047	-400000047	-400000047	-400000047	2	321	1964508247	9686180	0	0	0	0	0
6746722	7367182	13128902	3933811	-400000047	-400000047	-400000047	-400000047	2	321	1964508249	9686231	9687810	0	0	0	0
6740237	7355881	13119508	3929663	-400000047	-400000047	-400000047	-400000047	2	321	1964508251	9688264	9690218	0	0	0	0
6737566	7349825	13113309	3933001	-400000047	-400000047	-400000047	-400000047	2	321	1964508253	9696469	0	0	0	0	0
6733132	7338238	13104058	3922987	-400000047	-400000047	-400000047	-400000047	2	321	1964508255	9696520	0	0	0	0	0
6730986	7332707	13108779	3924084	-400000047	-400000047	-400000047	-400000047	2	321	1964508257	9696547	0	0	0	0	0
6721306	7334757	13114883	3929520	-400000047	-400000047	-400000047	-400000047	2	321	1964508259	9696571	9698787	0	0	0	0
6709957	7328940	13114406	3923607	-400000047	-400000047	-400000047	-400000047	2	321	1964508261	9700949	0	0	0	0	0
6695938	7314778	13097192	3908348	-400000047	-400000047	-400000047	-400000047	2	321	1964508263	9701023	0	0	0	0	0
6701136	7324028	13089276	3910637	-400000047	-400000047	-400000047	-400000047	2	321	1964508265	9701069	0	0	0	0	0
6695080	7313586	13082553	3904629	-400000047	-400000047	-400000047	-400000047	2	321	1964508267	9701131	0	0	0	0	0
6697321	7312966	13093759	3909636	-400000047	-400000047	-400000047	-400000047	2	321	1964508269	9701170	0	0	0	0	0
6695319	7313872	13101388	3913784	-400000047	-400000047	-400000047	-400000047	2	321	1964508271	9702497	9703768	0	0	0	0
6698275	7318497	13109304	3921509	-400000047	-400000047	-400000047	-400000047	2	321	1964508273	9709600	0	0	0	0	0
6710577	7328654	13119126	3923702	-400000047	-400000047	-400000047	-400000047	2	321	1964508275	9709659	0	0	0	0	0
6710673	7330323	13116599	3918123	-400000047	-400000047	-400000047	-400000047	2	321	1964508277	9709686	9711890	0	0	0	0
6708384	7330037	13112451	3917074	-400000047	-400000047	-400000047	-400000047	2	321	1964508279	9743473	0	0	0	0	0
6717396	7342339	13119651	3920460	-400000047	-400000047	-400000047	-400000047	2	321	1964508281	9743640	9744750	0	0	0	0
6722784	7345438	13121654	3921175	-400000047	-400000047	-400000047	-400000047	2	321	1964508283	9747257	0	0	0	0	0
6720591	7350731	13118268	3920412	-400000047	-400000047	-400000047	-400000047	2	321	1964508285	9747401	0	0	0	0	0
6715441	7351828	13109017	3917551	-400000047	-400000047	-400000047	-400000047	2	321	1964508287	9747457	0	0	0	0	0
6707573	7338906	13100959	3909445	-400000047	-400000047	-400000047	-400000047	2	321	1964508289	9747501	0	0	0	0	0
6708002	7336855	13105870	3910351	-400000047	-400000047	-400000047	-400000047	2	321	1964508291	9747559	9750029	0	0	0	0
6720114	7351447	13115502	3915739	-400000047	-400000047	-400000047	-400000047	2	321	1964508293	9749640	0	0	0	0	0
6719065	7348061	13107062	3916836	-400000047	-400000047	-400000047	-400000047	2	321	1964508295	9749701	0	0	0	0	0
6723404	7343626	13110353	3920412	-400000047	-400000047	-400000047	-400000047	2	321	1964508297	9751355	9752238	0	0	0	0
6728077	7348586	13124181	3924036	-400000047	-400000047	-400000047	-400000047	2	321	1964508299	9755175	0	0	0	0	0
6721545	7346440	13118793	3916931	-400000047	-400000047	-400000047	-400000047	2	321	1964508301	9755246	0	0	0	0	0
6725598	7354594	13123084	3921223	-400000047	-400000047	-400000047	-400000047	2	321	1964508303	9755279	0	0	0	0	0
6722784	7350541	13128091	3925514	-400000047	-400000047	-400000047	-400000047	2	321	1964508305	9755305	9756837	0	0	0	0
6723976	7353020	13135148	3927278	-400000047	-400000047	-400000047	-400000047	2	321	1964508307	9757505	9759181	0	0	0	0
6736088	7368327	13143922	3934336	-400000047	-400000047	-400000047	-400000047	2	321	1964508309	9759997	0	0	0	0	0
6727028	7362652	13131906	3925514	-400000047	-400000047	-400000047	-400000047	2	321	1964508311	9760049	9761509	0	0	0	0
6715346	7352543	13122846	3917456	-400000047	-400000047	-400000047	-400000047	2	321	1964508313	9762507	9765805	0	0	0	0
6711102	7344199	13116218	3909779	-400000047	-400000047	-400000047	-400000047	2	321	1964508315	9764989	0	0	0	0	0
6719637	7348156	13116408	3914213	-400000047	-400000047	-400000047	-400000047	2	321	1964508317	9765056	9772008	0	0	0	0
6720877	7345248	13114692	3917026	-400000047	-400000047	-400000047	-400000047	2	321	1964508319	9768880	0	0	0	0	0
6721592	7353259	13120795	3918219	-400000047	-400000047	-400000047	-400000047	2	321	1964508321	9768957	0	0	0	0	0
6730748	7367516	13128282	3922367	-400000047	-400000047	-400000047	-400000047	2	321	1964508323	9769008	0	0	0	0	0
6730128	7369948	13125802	3919935	-400000047	-400000047	-400000047	-400000047	2	321	1964508325	9769035	0	0	0	0	0
6720305	7365990	13111783	3910732	-400000047	-400000047	-400000047	-400000047	2	321	1964508327	9772066	0	0	0	0	0
6723595	7365466	13107301	3912497	-400000047	-400000047	-400000047	-400000047	2	321	1964508329	9772151	9774305	0	0	0	0
6723309	7359457	13106776	3915834	-400000047	-400000047	-400000047	-400000047	2	321	1964508331	9773822	9776354	0	0	0	0
6721497	7360173	13116790	3916550	-400000047	-400000047	-400000047	-400000047	2	321	1964508333	9778508	0	0	0	0	0
6713867	7353640	13127710	3918552	-400000047	-400000047	-400000047	-400000047	2	321	1964508335	9778602	0	0	0	0	0
6723690	7355214	13139773	3925037	-400000047	-400000047	-400000047	-400000047	2	321	1964508337	9778633	0	0	0	0	0
6725455	7354927	13134719	3922796	-400000047	-400000047	-400000047	-400000047	2	321	1964508339	9778738	0	0	0	0	0
6721878	7354021	13128902	3918362	-400000047	-400000047	-400000047	-400000047	2	321	1964508341	9778798	9780817	0	0	0	0
6718684	7352496	13124276	3914642	-400000047	-400000047	-400000047	-400000047	2	321	1964508343	9781746	9783159	0	0	0	0
6713629	7341433	13114835	3908539	-400000047	-400000047	-400000047	-400000047	2	321	1964508345	9787145	0	0	0	0	0
6718207	7345057	13117028	3912258	-400000047	-400000047	-400000047	-400000047	2	321	1964508347	9787264	0	0	0	0	0
6728554	7358742	13124848	3920460	-400000047	-400000047	-400000047	-400000047	2	321	1964508349	9787301	9788625	0	0	0	0
6727791	7361317	13123323	3916836	-400000047	-400000047	-400000047	-400000047	2	321	1964508351	9849872	0	0	0	0	0
6733656	7367325	13129998	3923321	-400000047	-400000047	-400000047	-400000047	2	321	1964508353	9849995	0	0	0	0	0
6732130	7367421	13129331	3921986	-400000047	-400000047	-400000047	-400000047	2	321	1964508355	9850025	0	0	0	0	0
6727410	7357693	13119603	3916931	-400000047	-400000047	-400000047	-400000047	2	321	1964508357	9850051	0	0	0	0	0
6726408	7354927	13118554	3916931	-400000047	-400000047	-400000047	-400000047	2	321	1964508359	9850092	0	0	0	0	0
6716776	7352734	13118507	3914595	-400000047	-400000047	-400000047	-400000047	2	321	1964508361	9850119	9850757	0	0	0	0
6709719	7348538	13112928	3913021	-400000047	-400000047	-400000047	-400000047	2	321	1964508363	9852849	0	0	0	0	0
6705189	7344962	13106013	3906631	-400000047	-400000047	-400000047	-400000047	2	321	1964508365	9853001	0	0	0	0	0
6707955	7344532	13102103	3905439	-400000047	-400000047	-400000047	-400000047	2	321	1964508367	9853060	9854668	0	0	0	0
6707335	7345391	13099862	3904295	-400000047	-400000047	-400000047	-400000047	2	321	1964508369	9855827	0	0	0	0	0
6710100	7351256	13105537	3907633	-400000047	-400000047	-400000047	-400000047	2	321	1964508371	9855994	0	0	0	0	0
6726313	7366515	13127948	3923511	-400000047	-400000047	-400000047	-400000047	2	321	1964508373	9856057	9856772	0	0	0	0
6733942	7370234	13136006	3926182	-400000047	-400000047	-400000047	-400000047	2	321	1964508375	9857505	0	0	0	0	0
6720782	7353354	13121844	3918934	-400000047	-400000047	-400000047	-400000047	2	321	1964508377	9857611	9861053	0	0	0	0
6712151	7349205	13113309	3915024	-400000047	-400000047	-400000047	-400000047	2	321	1964508379	9861559	0	0	0	0	0
6704855	7343769	13105155	3905678	-400000047	-400000047	-400000047	-400000047	2	321	1964508381	9861627	0	0	0	0	0
6708527	7343817	13107158	3908539	-400000047	-400000047	-400000047	-400000047	2	321	1964508383	9861672	0	0	0	0	0
6721449	7355404	13121081	3918934	-400000047	-400000047	-400000047	-400000047	2	321	1964508385	9861726	9863324	0	0	0	0
6738186	7376814	13138724	3930712	-400000047	-400000047	-400000047	-400000047	2	321	1964508387	9864005	9865509	0	0	0	0
6744433	7386256	13146354	3935337	-400000047	-400000047	-400000047	-400000047	2	321	1964508389	9866269	0	0	0	0	0
6734944	7376004	13137389	3919411	-400000047	-400000047	-400000047	-400000047	2	321	1964508391	9866336	9867644	0	0	0	0
6721497	7364273	13127328	3906918	-400000047	-400000047	-400000047	-400000047	2	321	1964508393	9869626	0	0	0	0	0
6713105	7352353	13118173	3901911	-400000047	-400000047	-400000047	-400000047	2	321	1964508395	9869677	0	0	0	0	0
6717253	7351399	13113309	3905582	-400000047	-400000047	-400000047	-400000047	2	321	1964508397	9869703	9873499	0	0	0	0
6710100	7344580	13093949	3900814	-400000047	-400000047	-400000047	-400000047	2	321	1964508399	9874096	0	0	0	0	0
6707287	7343483	13077785	3897190	-400000047	-400000047	-400000047	-400000047	2	321	1964508401	9874166	9876014	0	0	0	0
6715393	7349778	13086272	3906441	-400000047	-400000047	-400000047	-400000047	2	321	1964508403	9877716	0	0	0	0	0
6731415	7364464	13123466	3930569	-400000047	-400000047	-400000047	-400000047	2	321	1964508405	9877781	0	0	0	0	0
6740332	7375765	13150979	3941822	-400000047	-400000047	-400000047	-400000047	2	321	1964508407	9877815	9878411	0	0	0	0
6743574	7379485	13153316	3938341	-400000047	-400000047	-400000047	-400000047	2	321	1964508409	9880232	9880933	0	0	0	0
6732464	7369423	13142253	3930092	-400000047	-400000047	-400000047	-400000047	2	321	1964508411	9882561	0	0	0	0	0
6735802	7376480	13141061	3931189	-400000047	-400000047	-400000047	-400000047	2	321	1964508413	9882700	9885249	0	0	0	0
6748867	7386065	13136817	3934431	-400000047	-400000047	-400000047	-400000047	2	321	1964508415	9885531	0	0	0	0	0
6746722	7379771	13125373	3927469	-400000047	-400000047	-400000047	-400000047	2	321	1964508417	9885628	9887855	0	0	0	0
6739569	7372713	13124276	3925991	-400000047	-400000047	-400000047	-400000047	2	321	1964508419	9888401	0	0	0	0	0
6740284	7375718	13134051	3926945	-400000047	-400000047	-400000047	-400000047	2	321	1964508421	9888466	9890027	0	0	0	0
6734944	7374287	13132001	3926134	-400000047	-400000047	-400000047	-400000047	2	321	1964508423	9890204	9892153	0	0	0	0
6734371	7376242	13131429	3925705	-400000047	-400000047	-400000047	-400000047	2	321	1964508425	9893333	0	0	0	0	0
6728936	7372332	13128234	3922892	-400000047	-400000047	-400000047	-400000047	2	321	1964508427	9893390	0	0	0	0	0
6729555	7370520	13133575	3924179	-400000047	-400000047	-400000047	-400000047	2	321	1964508429	9895754	0	0	0	0	0
6730509	7365418	13133002	3925180	-400000047	-400000047	-400000047	-400000047	2	321	1964508431	9895824	0	0	0	0	0
6732846	7367516	13134624	3928328	-400000047	-400000047	-400000047	-400000047	2	321	1964508433	9895870	9896700	0	0	0	0
6733990	7373238	13134528	3932333	-400000047	-400000047	-400000047	-400000047	2	321	1964508435	9897472	9898958	0	0	0	0
6729889	7371712	13131286	3928566	-400000047	-400000047	-400000047	-400000047	2	321	1964508437	9901469	0	0	0	0	0
6725407	7369185	13126947	3924084	-400000047	-400000047	-400000047	-400000047	2	321	1964508439	9901603	0	0	0	0	0
6726647	7369423	13125182	3922558	-400000047	-400000047	-400000047	-400000047	2	321	1964508441	9901661	9903719	0	0	0	0
6725455	7365418	13122321	3915501	-400000047	-400000047	-400000047	-400000047	2	321	1964508443	9903964	0	0	0	0	0
6718302	7357645	13121272	3914356	-400000047	-400000047	-400000047	-400000047	2	321	1964508445	9904039	9907567	0	0	0	0
6719542	7362509	13123466	3915501	-400000047	-400000047	-400000047	-400000047	2	321	1964508447	9908938	0	0	0	0	0
6729508	7372475	13126088	3921652	-400000047	-400000047	-400000047	-400000047	2	321	1964508449	9909027	0	0	0	0	0
6735850	7372189	13122226	3923464	-400000047	-400000047	-400000047	-400000047	2	321	1964508451	9909075	9910057	0	0	0	0
6732607	7364703	13122464	3919029	-400000047	-400000047	-400000047	-400000047	2	321	1964508453	9912574	0	0	0	0	0
6728316	7360125	13125516	3913498	-400000047	-400000047	-400000047	-400000047	2	321	1964508455	9912667	9914625	0	0	0	0
6718684	7363224	13124181	3916740	-400000047	-400000047	-400000047	-400000047	2	321	1964508457	9920154	0	0	0	0	0
6706477	7356596	13109161	3904819	-400000047	-400000047	-400000047	-400000047	2	321	1964508459	9920237	0	0	0	0	0
6705475	7352496	13099671	3897619	-400000047	-400000047	-400000047	-400000047	2	321	1964508461	9920283	9921754	0	0	0	0
6703520	7346058	13093616	3894091	-400000047	-400000047	-400000047	-400000047	2	321	1964508463	9925894	0	0	0	0	0
6707335	7346106	13102962	3903770	-400000047	-400000047	-400000047	-400000047	2	321	1964508465	9925983	0	0	0	0	0
6712389	7351447	13114835	3908586	-400000047	-400000047	-400000047	-400000047	2	321	1964508467	9926029	0	0	0	0	0
6720352	7361794	13127233	3912973	-400000047	-400000047	-400000047	-400000047	2	321	1964508469	9926073	0	0	0	0	0
6727887	7370663	13130952	3922892	-400000047	-400000047	-400000047	-400000047	2	321	1964508471	9926129	9926953	0	0	0	0
6738425	7380867	13135244	3928232	-400000047	-400000047	-400000047	-400000047	2	321	1964508473	9927591	0	0	0	0	0
6732655	7373143	13127614	3923559	-400000047	-400000047	-400000047	-400000047	2	321	1964508475	9927655	9929474	0	0	0	0
6722355	7365656	13123036	3916454	-400000047	-400000047	-400000047	-400000047	2	321	1964508477	9931348	9934007	0	0	0	0
6720829	7363606	13124658	3916311	-400000047	-400000047	-400000047	-400000047	2	321	1964508479	9940962	0	0	0	0	0
6727648	7372427	13128615	3920269	-400000047	-400000047	-400000047	-400000047	2	321	1964508481	9941067	0	0	0	0	0
6731558	7377720	13131572	3923655	-400000047	-400000047	-400000047	-400000047	2	321	1964508483	9941112	9942642	0	0	0	0
6732607	7376480	13132526	3923750	-400000047	-400000047	-400000047	-400000047	2	321	1964508485	9949697	0	0	0	0	0
6725836	7370186	13126565	3919601	-400000047	-400000047	-400000047	-400000047	2	321	1964508487	9949778	0	0	0	0	0
6715727	7363511	13119842	3914642	-400000047	-400000047	-400000047	-400000047	2	321	1964508489	9949849	0	0	0	0	0
6707335	7354069	13112117	3909206	-400000047	-400000047	-400000047	-400000047	2	321	1964508491	9949904	0	0	0	0	0
6716442	7358265	13114453	3912830	-400000047	-400000047	-400000047	-400000047	2	321	1964508493	9949961	0	0	0	0	0
6722403	7367993	13120843	3920126	-400000047	-400000047	-400000047	-400000047	2	321	1964508495	9951350	9952231	0	0	0	0
6726313	7372475	13125135	3920269	-400000047	-400000047	-400000047	-400000047	2	321	1964508497	9955320	9956124	0	0	0	0
6723166	7369709	13123704	3916597	-400000047	-400000047	-400000047	-400000047	2	321	1964508499	9962643	0	0	0	0	0
6727887	7373715	13130189	3918982	-400000047	-400000047	-400000047	-400000047	2	321	1964508501	9962742	0	0	0	0	0
6729889	7373858	13128377	3917170	-400000047	-400000047	-400000047	-400000047	2	321	1964508503	9962791	0	0	0	0	0
6735754	7381916	13133527	3924799	-400000047	-400000047	-400000047	-400000047	2	321	1964508505	9962835	9964997	0	0	0	0
6734228	7384205	13133527	3927994	-400000047	-400000047	-400000047	-400000047	2	321	1964508507	9967869	0	0	0	0	0
6733847	7384825	13132478	3927374	-400000047	-400000047	-400000047	-400000047	2	321	1964508509	9967983	0	0	0	0	0
6732035	7379342	13129998	3921223	-400000047	-400000047	-400000047	-400000047	2	321	1964508511	9968031	0	0	0	0	0
6735468	7380295	13132955	3922081	-400000047	-400000047	-400000047	-400000047	2	321	1964508513	9968111	9969772	0	0	0	0
6739521	7388401	13135434	3922367	-400000047	-400000047	-400000047	-400000047	2	321	1964508515	9971760	0	0	0	0	0
6734419	7386637	13134051	3925276	-400000047	-400000047	-400000047	-400000047	2	321	1964508517	9971865	0	0	0	0	0
6733942	7384873	13137389	3926706	-400000047	-400000047	-400000047	-400000047	2	321	1964508519	9971911	0	0	0	0	0
6741429	7390166	13141442	3927374	-400000047	-400000047	-400000047	-400000047	2	321	1964508521	9971970	9974827	0	0	0	0
6737185	7385683	13136483	3924894	-400000047	-400000047	-400000047	-400000047	2	321	1964508523	9975351	0	0	0	0	0
6735945	7385683	13133193	3923464	-400000047	-400000047	-400000047	-400000047	2	321	1964508525	9975425	0	0	0	0	0
6732941	7384205	13132955	3921986	-400000047	-400000047	-400000047	-400000047	2	321	1964508527	9975469	0	0	0	0	0
6726551	7375431	13125039	3915310	-400000047	-400000047	-400000047	-400000047	2	321	1964508529	9975525	9977130	0	0	0	0
6725550	7370949	13122846	3914785	-400000047	-400000047	-400000047	-400000047	2	321	1964508531	9978451	0	0	0	0	0
6725264	7372570	13126613	3918695	-400000047	-400000047	-400000047	-400000047	2	321	1964508533	9978541	9979143	0	0	0	0
6722832	7376910	13129283	3916073	-400000047	-400000047	-400000047	-400000047	2	321	1964508535	9981268	0	0	0	0	0
6715632	7369471	13123942	3910017	-400000047	-400000047	-400000047	-400000047	2	321	1964508537	9981344	0	0	0	0	0
6717635	7370282	13123990	3913689	-400000047	-400000047	-400000047	-400000047	2	321	1964508539	9981378	0	0	0	0	0
6717444	7368899	13121892	3913212	-400000047	-400000047	-400000047	-400000047	2	321	1964508541	9981403	9984121	0	0	0	0
6715441	7372189	13120462	3911161	-400000047	-400000047	-400000047	-400000047	2	321	1964508543	9984637	0	0	0	0	0
6719923	7378006	13123323	3915262	-400000047	-400000047	-400000047	-400000047	2	321	1964508545	9984706	0	0	0	0	0
6721163	7369995	13122750	3913259	-400000047	-400000047	-400000047	-400000047	2	321	1964508547	9987052	0	0	0	0	0
6716061	7361603	13112594	3908777	-400000047	-400000047	-400000047	-400000047	2	321	1964508549	9987153	0	0	0	0	0
6717348	7365513	13113547	3908062	-400000047	-400000047	-400000047	-400000047	2	321	1964508551	9989799	0	0	0	0	0
6720305	7373572	13121320	3911018	-400000047	-400000047	-400000047	-400000047	2	321	1964508553	9989874	9991520	0	0	0	0
6718016	7373095	13121940	3912449	-400000047	-400000047	-400000047	-400000047	2	321	1964508555	9996491	0	0	0	0	0
6720209	7374669	13125135	3917265	-400000047	-400000047	-400000047	-400000047	2	321	1964508557	9996579	0	0	0	0	0
6715441	7366610	13115121	3908062	-400000047	-400000047	-400000047	-400000047	2	321	1964508559	9996624	0	0	0	0	0
6699229	7353354	13100339	3896618	-400000047	-400000047	-400000047	-400000047	2	321	1964508561	9996669	9997856	0	0	0	0
6702090	7357693	13102437	3897667	-400000047	-400000047	-400000047	-400000047	2	321	1964508563	10001276	0	0	0	0	0
6713629	7370043	13111545	3904438	-400000047	-400000047	-400000047	-400000047	2	321	1964508565	10001355	0	0	0	0	0
6727982	7385302	13129712	3919411	-400000047	-400000047	-400000047	-400000047	2	321	1964508567	10001412	10003330	0	0	0	0
6743193	7399989	13146878	3934479	-400000047	-400000047	-400000047	-400000047	2	321	1964508569	10005103	10006429	0	0	0	0
6740284	7395459	13144208	3930235	-400000047	-400000047	-400000047	-400000047	2	321	1964508571	10038940	0	0	0	0	0
6731081	7383299	13134385	3918552	-400000047	-400000047	-400000047	-400000047	2	321	1964508573	10039086	10041385	0	0	0	0
6720686	7374812	13131477	3916073	-400000047	-400000047	-400000047	-400000047	2	321	1964508575	10042591	0	0	0	0	0
6712818	7367230	13126994	3909159	-400000047	-400000047	-400000047	-400000047	2	321	1964508577	10042664	0	0	0	0	0
6710816	7364178	13119365	3904867	-400000047	-400000047	-400000047	-400000047	2	321	1964508579	10042710	10044170	0	0	0	0
6709242	7362795	13115121	3901768	-400000047	-400000047	-400000047	-400000047	2	321	1964508581	10046604	0	0	0	0	0
6708288	7363844	13116027	3901100	-400000047	-400000047	-400000047	-400000047	2	321	1964508583	10046727	0	0	0	0	0
6715203	7375002	13123466	3905439	-400000047	-400000047	-400000047	-400000047	2	321	1964508585	10046854	0	0	0	0	0
6728030	7387925	13136817	3920269	-400000047	-400000047	-400000047	-400000047	2	321	1964508587	10046915	0	0	0	0	0
6733132	7392311	13141633	3926945	-400000047	-400000047	-400000047	-400000047	2	321	1964508589	10047014	10048379	0	0	0	0
6725216	7381916	13132096	3917789	-400000047	-400000047	-400000047	-400000047	2	321	1964508591	10050365	0	0	0	0	0
6715632	7373190	13119651	3905439	-400000047	-400000047	-400000047	-400000047	2	321	1964508593	10050445	0	0	0	0	0
6710816	7368422	13115264	3904390	-400000047	-400000047	-400000047	-400000047	2	321	1964508595	10050483	0	0	0	0	0
6712628	7368946	13119985	3907061	-400000047	-400000047	-400000047	-400000047	2	321	1964508597	10050549	10051264	0	0	0	0
6716872	7378865	13126422	3909349	-400000047	-400000047	-400000047	-400000047	2	321	1964508599	10053242	0	0	0	0	0
6719733	7384682	13125468	3908253	-400000047	-400000047	-400000047	-400000047	2	321	1964508601	10053316	10057412	0	0	0	0
6720543	7383776	13122941	3907728	-400000047	-400000047	-400000047	-400000047	2	321	1964508603	10058249	0	0	0	0	0
6717968	7372904	13116504	3901291	-400000047	-400000047	-400000047	-400000047	2	321	1964508605	10058325	10059742	0	0	0	0
6714058	7367802	13112975	3900242	-400000047	-400000047	-400000047	-400000047	2	321	1964508607	10060213	10062328	0	0	0	0
6716061	7377530	13119508	3907204	-400000047	-400000047	-400000047	-400000047	2	321	1964508609	10062720	0	0	0	0	0
6717635	7382584	13128472	3910160	-400000047	-400000047	-400000047	-400000047	2	321	1964508611	10062796	10065268	0	0	0	0
6715727	7380200	13130189	3914642	-400000047	-400000047	-400000047	-400000047	2	321	1964508613	10068294	0	0	0	0	0
6713963	7377005	13124753	3909969	-400000047	-400000047	-400000047	-400000047	2	321	1964508615	10068393	0	0	0	0	0
6716872	7382059	13132287	3914547	-400000047	-400000047	-400000047	-400000047	2	321	1964508617	10070047	0	0	0	0	0
6722975	7386876	13139630	3922510	-400000047	-400000047	-400000047	-400000047	2	321	1964508619	10070110	10072617	0	0	0	0
6726790	7386399	13138105	3923082	-400000047	-400000047	-400000047	-400000047	2	321	1964508621	10072650	0	0	0	0	0
6724358	7385254	13131524	3919220	-400000047	-400000047	-400000047	-400000047	2	321	1964508623	10072710	10075101	0	0	0	0
6724644	7376862	13127137	3916693	-400000047	-400000047	-400000047	-400000047	2	321	1964508625	10075299	10077090	0	0	0	0
6725598	7376004	13128949	3920269	-400000047	-400000047	-400000047	-400000047	2	321	1964508627	10079022	0	0	0	0	0
6722021	7380247	13129665	3922653	-400000047	-400000047	-400000047	-400000047	2	321	1964508629	10079095	0	0	0	0	0
6714917	7378579	13125468	3919363	-400000047	-400000047	-400000047	-400000047	2	321	1964508631	10079125	0	0	0	0	0
6718588	7382775	13128329	3919792	-400000047	-400000047	-400000047	-400000047	2	321	1964508633	10079151	10079675	0	0	0	0
6730175	7392788	13136197	3924990	-400000047	-400000047	-400000047	-400000047	2	321	1964508635	10082011	10083639	0	0	0	0
6729746	7392979	13136054	3924417	-400000047	-400000047	-400000047	-400000047	2	321	1964508637	10084015	0	0	0	0	0
6720591	7383776	13126517	3919268	-400000047	-400000047	-400000047	-400000047	2	321	1964508639	10084077	0	0	0	0	0
6717301	7380295	13124610	3916407	-400000047	-400000047	-400000047	-400000047	2	321	1964508641	10087629	0	0	0	0	0
6717873	7380677	13124753	3916883	-400000047	-400000047	-400000047	-400000047	2	321	1964508643	10087719	0	0	0	0	0
6720686	7382536	13126756	3917694	-400000047	-400000047	-400000047	-400000047	2	321	1964508645	10087748	10089968	0	0	0	0
6722164	7385874	13130141	3918076	-400000047	-400000047	-400000047	-400000047	2	321	1964508647	10091341	0	0	0	0	0
6725121	7389117	13135625	3920794	-400000047	-400000047	-400000047	-400000047	2	321	1964508649	10091447	0	0	0	0	0
6727600	7391835	13137342	3923130	-400000047	-400000047	-400000047	-400000047	2	321	1964508651	10091498	10092633	0	0	0	0
6708813	7372904	13124515	3912401	-400000047	-400000047	-400000047	-400000047	2	321	1964508653	10093860	0	0	0	0	0
6704331	7364464	13119079	3909636	-400000047	-400000047	-400000047	-400000047	2	321	1964508655	10093938	10095215	0	0	0	0
6710196	7371807	13122750	3911209	-400000047	-400000047	-400000047	-400000047	2	321	1964508657	10096361	0	0	0	0	0
6708670	7374669	13115026	3904390	-400000047	-400000047	-400000047	-400000047	2	321	1964508659	10096416	10097738	0	0	0	0
6699515	7371188	13105775	3898764	-400000047	-400000047	-400000047	-400000047	2	321	1964508661	10100168	10102888	0	0	0	0
6698656	7367230	13108111	3899670	-400000047	-400000047	-400000047	-400000047	2	321	1964508663	10135069	0	0	0	0	0
6706238	7371378	13115932	3903770	-400000047	-400000047	-400000047	-400000047	2	321	1964508665	10135143	0	0	0	0	0
6703282	7370615	13111735	3899860	-400000047	-400000047	-400000047	-400000047	2	321	1964508667	10135177	0	0	0	0	0
6706143	7371951	13115455	3899717	-400000047	-400000047	-400000047	-400000047	2	321	1964508669	10135207	10135667	0	0	0	0
6714154	7378531	13126231	3909016	-400000047	-400000047	-400000047	-400000047	2	321	1964508671	10142686	0	0	0	0	0
6704617	7373047	13120319	3908920	-400000047	-400000047	-400000047	-400000047	2	321	1964508673	10142755	0	0	0	0	0
6706286	7370377	13116790	3904009	-400000047	-400000047	-400000047	-400000047	2	321	1964508675	10142790	10143623	0	0	0	0
6713534	7373333	13120319	3903818	-400000047	-400000047	-400000047	-400000047	2	321	1964508677	10147149	0	0	0	0	0
6711626	7371617	13122941	3904009	-400000047	-400000047	-400000047	-400000047	2	321	1964508679	10147269	0	0	0	0	0
6711626	7373095	13125278	3902769	-400000047	-400000047	-400000047	-400000047	2	321	1964508681	10147316	0	0	0	0	0
6707573	7371140	13122750	3897476	-400000047	-400000047	-400000047	-400000047	2	321	1964508683	10147380	10147745	0	0	0	0
6718970	7381583	13131381	3905916	-400000047	-400000047	-400000047	-400000047	2	321	1964508685	10147460	0	0	0	0	0
6730080	7390881	13138486	3919554	-400000047	-400000047	-400000047	-400000047	2	321	1964508687	10149658	0	0	0	0	0
6727028	7390356	13139440	3921366	-400000047	-400000047	-400000047	-400000047	2	321	1964508689	10149768	10150893	0	0	0	0
6720734	7388497	13135625	3917408	-400000047	-400000047	-400000047	-400000047	2	321	1964508691	10151321	10153210	0	0	0	0
6717825	7386732	13130809	3913212	-400000047	-400000047	-400000047	-400000047	2	321	1964508693	10153865	0	0	0	0	0
6715966	7381106	13123370	3905201	-400000047	-400000047	-400000047	-400000047	2	321	1964508695	10153933	10158150	0	0	0	0
6714058	7379914	13120032	3901720	-400000047	-400000047	-400000047	-400000047	2	321	1964508697	10158881	10160234	0	0	0	0
6717301	7378292	13123227	3904152	-400000047	-400000047	-400000047	-400000047	2	321	1964508699	10161335	0	0	0	0	0
6714869	7374764	13125564	3902388	-400000047	-400000047	-400000047	-400000047	2	321	1964508701	10161419	10165270	0	0	0	0
6717253	7381821	13132287	3906679	-400000047	-400000047	-400000047	-400000047	2	321	1964508703	10165193	0	0	0	0	0
6714297	7381392	13126565	3904152	-400000047	-400000047	-400000047	-400000047	2	321	1964508705	10165263	0	0	0	0	0
6709338	7374049	13119222	3898907	-400000047	-400000047	-400000047	-400000047	2	321	1964508707	10165302	0	0	0	0	0
6703329	7374764	13112832	3893089	-400000047	-400000047	-400000047	-400000047	2	321	1964508709	10165334	10168292	0	0	0	0
6696844	7366705	13106872	3889275	-400000047	-400000047	-400000047	-400000047	2	321	1964508711	10168437	0	0	0	0	0
6700373	7364798	13109351	3890943	-400000047	-400000047	-400000047	-400000047	2	321	1964508713	10170093	0	0	0	0	0
6705094	7367993	13116313	3899527	-400000047	-400000047	-400000047	-400000047	2	321	1964508715	10170218	0	0	0	0	0
6719399	7383871	13136054	3916073	-400000047	-400000047	-400000047	-400000047	2	321	1964508717	10172517	10175017	0	0	0	0
6729842	7402945	13151408	3924036	-400000047	-400000047	-400000047	-400000047	2	321	1964508719	10176428	0	0	0	0	0
6733704	7404709	13145877	3919744	-400000047	-400000047	-400000047	-400000047	2	321	1964508721	10176566	0	0	0	0	0
6733656	7400608	13135816	3916597	-400000047	-400000047	-400000047	-400000047	2	321	1964508723	10176638	0	0	0	0	0
6722260	7386303	13124944	3907633	-400000047	-400000047	-400000047	-400000047	2	321	1964508725	10176699	10177806	0	0	0	0
6717015	7374669	13124753	3906870	-400000047	-400000047	-400000047	-400000047	2	321	1964508727	10179507	0	0	0	0	0
6713915	7370043	13123799	3907013	-400000047	-400000047	-400000047	-400000047	2	321	1964508729	10179645	10179914	0	0	0	0
6715107	7377291	13125564	3909540	-400000047	-400000047	-400000047	-400000047	2	321	1964508731	10181295	10182141	0	0	0	0
6718064	7382727	13130857	3912830	-400000047	-400000047	-400000047	-400000047	2	321	1964508733	10183798	10186151	0	0	0	0
6719971	7383728	13131333	3909445	-400000047	-400000047	-400000047	-400000047	2	321	1964508735	10188436	0	0	0	0	0
6725359	7386732	13136579	3912020	-400000047	-400000047	-400000047	-400000047	2	321	1964508737	10188531	0	0	0	0	0
6719876	7379914	13130952	3910494	-400000047	-400000047	-400000047	-400000047	2	321	1964508739	10188569	0	0	0	0	0
6722594	7382298	13135005	3914976	-400000047	-400000047	-400000047	-400000047	2	321	1964508741	10188601	0	0	0	0	0
6715012	7380772	13133479	3915453	-400000047	-400000047	-400000047	-400000047	2	321	1964508743	10188650	0	0	0	0	0
6714487	7382918	13133956	3915119	-400000047	-400000047	-400000047	-400000047	2	321	1964508745	10188684	10190864	0	0	0	0
6716585	7383252	13128377	3909779	-400000047	-400000047	-400000047	-400000047	2	321	1964508747	10190736	0	0	0	0	0
6714249	7379008	13121749	3906631	-400000047	-400000047	-400000047	-400000047	2	321	1964508749	10190789	10195772	0	0	0	0
6711006	7379723	13121081	3903961	-400000047	-400000047	-400000047	-400000047	2	321	1964508751	10228376	0	0	0	0	0
6717110	7387925	13127471	3909492	-400000047	-400000047	-400000047	-400000047	2	321	1964508753	10228557	10229750	0	0	0	0
6714535	7381583	13123323	3907490	-400000047	-400000047	-400000047	-400000047	2	321	1964508755	10235070	0	0	0	0	0
6704808	7371235	13117505	3897858	-400000047	-400000047	-400000047	-400000047	2	321	1964508757	10235177	0	0	0	0	0
6696081	7363272	13113929	3891230	-400000047	-400000047	-400000047	-400000047	2	321	1964508759	10235216	0	0	0	0	0
6703568	7369042	13120128	3900576	-400000047	-400000047	-400000047	-400000047	2	321	1964508761	10235248	0	0	0	0	0
6710005	7372332	13120414	3904915	-400000047	-400000047	-400000047	-400000047	2	321	1964508763	10235298	0	0	0	0	0
6707621	7368517	13114501	3895855	-400000047	-400000047	-400000047	-400000047	2	321	1964508765	10235330	0	0	0	0	0
6722164	7384158	13129521	3911066	-400000047	-400000047	-400000047	-400000047	2	321	1964508767	10235361	10236749	0	0	0	0
6723547	7387829	13135100	3915119	-400000047	-400000047	-400000047	-400000047	2	321	1964508769	10241241	0	0	0	0	0
6722832	7391930	13137675	3916216	-400000047	-400000047	-400000047	-400000047	2	321	1964508771	10241317	0	0	0	0	0
6721688	7392121	13136102	3915358	-400000047	-400000047	-400000047	-400000047	2	321	1964508773	10241352	0	0	0	0	0
6717205	7389355	13133193	3916311	-400000047	-400000047	-400000047	-400000047	2	321	1964508775	10241390	10241836	0	0	0	0
6723213	7391501	13137056	3921843	-400000047	-400000047	-400000047	-400000047	2	321	1964508777	10241432	0	0	0	0	0
6720496	7384825	13130284	3915501	-400000047	-400000047	-400000047	-400000047	2	321	1964508779	10241478	0	0	0	0	0
6713057	7379151	13124038	3910732	-400000047	-400000047	-400000047	-400000047	2	321	1964508781	10241516	10244202	0	0	0	0
6716490	7383252	13130571	3916693	-400000047	-400000047	-400000047	-400000047	2	321	1964508783	10247016	0	0	0	0	0
6719303	7383871	13135244	3915071	-400000047	-400000047	-400000047	-400000047	2	321	1964508785	10247128	10248721	0	0	0	0
6711912	7383728	13130809	3908586	-400000047	-400000047	-400000047	-400000047	2	321	1964508787	10251291	10252254	0	0	0	0
6707859	7379532	13126708	3909540	-400000047	-400000047	-400000047	-400000047	2	321	1964508789	10253764	0	0	0	0	0
6712437	7382250	13128615	3914070	-400000047	-400000047	-400000047	-400000047	2	321	1964508791	10253826	0	0	0	0	0
6719065	7384015	13129903	3915787	-400000047	-400000047	-400000047	-400000047	2	321	1964508793	10256316	10257854	0	0	0	0
6718350	7382584	13126756	3909397	-400000047	-400000047	-400000047	-400000047	2	321	1964508795	10260034	0	0	0	0	0
6715775	7381440	13117601	3904963	-400000047	-400000047	-400000047	-400000047	2	321	1964508797	10260112	0	0	0	0	0
6716442	7381106	13116027	3902626	-400000047	-400000047	-400000047	-400000047	2	321	1964508799	10260156	10262787	0	0	0	0
6710148	7376290	13116313	3899527	-400000047	-400000047	-400000047	-400000047	2	321	1964508801	10262776	0	0	0	0	0
6704140	7374192	13122178	3905010	-400000047	-400000047	-400000047	-400000047	2	321	1964508803	10262867	10264863	0	0	0	0
6704283	7372761	13125230	3906202	-400000047	-400000047	-400000047	-400000047	2	321	1964508805	10265184	0	0	0	0	0
6706286	7374716	13125707	3903913	-400000047	-400000047	-400000047	-400000047	2	321	1964508807	10265262	0	0	0	0	0
6710577	7380629	13132192	3912306	-400000047	-400000047	-400000047	-400000047	2	321	1964508809	10268391	0	0	0	0	0
6704140	7372094	13125850	3908777	-400000047	-400000047	-400000047	-400000047	2	321	1964508811	10268530	10269385	0	0	0	0
6703234	7369042	13122417	3904486	-400000047	-400000047	-400000047	-400000047	2	321	1964508813	10270725	0	0	0	0	0
6701851	7367468	13119365	3901672	-400000047	-400000047	-400000047	-400000047	2	321	1964508815	10270793	0	0	0	0	0
6701136	7366896	13119031	3899288	-400000047	-400000047	-400000047	-400000047	2	321	1964508817	10270828	10275608	0	0	0	0
6704760	7372809	13123609	3902149	-400000047	-400000047	-400000047	-400000047	2	321	1964508819	10276024	0	0	0	0	0
6711150	7384015	13125611	3906393	-400000047	-400000047	-400000047	-400000047	2	321	1964508821	10276087	0	0	0	0	0
6704760	7382203	13115693	3904486	-400000047	-400000047	-400000047	-400000047	2	321	1964508823	10277575	10278045	0	0	0	0
6702137	7374573	13112928	3902340	-400000047	-400000047	-400000047	-400000047	2	321	1964508825	10280874	0	0	0	0	0
6706143	7373286	13120557	3907394	-400000047	-400000047	-400000047	-400000047	2	321	1964508827	10280962	0	0	0	0	0
6703806	7365895	13115646	3900099	-400000047	-400000047	-400000047	-400000047	2	321	1964508829	10281008	10282919	0	0	0	0
6706953	7366801	13120366	3904295	-400000047	-400000047	-400000047	-400000047	2	321	1964508831	10282599	0	0	0	0	0
6699562	7365990	13119317	3904152	-400000047	-400000047	-400000047	-400000047	2	321	1964508833	10285780	0	0	0	0	0
6694699	7366562	13117934	3899717	-400000047	-400000047	-400000047	-400000047	2	321	1964508835	10285904	10287854	0	0	0	0
6697607	7369280	13119937	3899717	-400000047	-400000047	-400000047	-400000047	2	321	1964508837	10290043	0	0	0	0	0
6686974	7355261	13102103	3888798	-400000047	-400000047	-400000047	-400000047	2	321	1964508839	10290131	10292720	0	0	0	0
6670618	7340050	13079692	3876162	-400000047	-400000047	-400000047	-400000047	2	321	1964508841	10293229	0	0	0	0	0
6664944	7334614	13073970	3871822	-400000047	-400000047	-400000047	-400000047	2	321	1964508843	10293287	0	0	0	0	0
6668949	7336569	13085462	3881597	-400000047	-400000047	-400000047	-400000047	2	321	1964508845	10293323	10295194	0	0	0	0
6687355	7354641	13108684	3896666	-400000047	-400000047	-400000047	-400000047	2	321	1964508847	10330419	0	0	0	0	0
6717873	7389737	13140203	3917885	-400000047	-400000047	-400000047	-400000047	2	321	1964508849	10330547	0	0	0	0	0
6743527	7416773	13167049	3942680	-400000047	-400000047	-400000047	-400000047	2	321	1964508851	10330590	0	0	0	0	0
6737757	7408524	13158036	3933859	-400000047	-400000047	-400000047	-400000047	2	321	1964508853	10330622	10331772	0	0	0	0
6720877	7389689	13137294	3918123	-400000047	-400000047	-400000047	-400000047	2	321	1964508855	10334187	0	0	0	0	0
6705475	7374478	13123180	3907633	-400000047	-400000047	-400000047	-400000047	2	321	1964508857	10334326	0	0	0	0	0
6695652	7366181	13113595	3898859	-400000047	-400000047	-400000047	-400000047	2	321	1964508859	10334383	10336738	0	0	0	0
6697083	7369566	13110496	3895187	-400000047	-400000047	-400000047	-400000047	2	321	1964508861	10337061	0	0	0	0	0
6689501	7361365	13104011	3890753	-400000047	-400000047	-400000047	-400000047	2	321	1964508863	10337128	0	0	0	0	0
6689453	7364703	13110973	3895378	-400000047	-400000047	-400000047	-400000047	2	321	1964508865	10337172	0	0	0	0	0
6702471	7375431	13122512	3903198	-400000047	-400000047	-400000047	-400000047	2	321	1964508867	10340273	0	0	0	0	0
6711006	7385970	13132049	3911400	-400000047	-400000047	-400000047	-400000047	2	321	1964508869	10340387	0	0	0	0	0
6713105	7389355	13134338	3912830	-400000047	-400000047	-400000047	-400000047	2	321	1964508871	10340437	0	0	0	0	0
6714154	7384205	13129140	3904724	-400000047	-400000047	-400000047	-400000047	2	321	1964508873	10340501	10342259	0	0	0	0
6719780	7392645	13131238	3909254	-400000047	-400000047	-400000047	-400000047	2	321	1964508875	10343229	10344589	0	0	0	0
6718302	7392550	13126279	3905058	-400000047	-400000047	-400000047	-400000047	2	321	1964508877	10345793	0	0	0	0	0
6711531	7382536	13123180	3906155	-400000047	-400000047	-400000047	-400000047	2	321	1964508879	10345892	0	0	0	0	0
6702519	7376147	13121081	3903294	-400000047	-400000047	-400000047	-400000047	2	321	1964508881	10345937	10346818	0	0	0	0
6704235	7376099	13121987	3905058	-400000047	-400000047	-400000047	-400000047	2	321	1964508883	10348274	0	0	0	0	0
6710720	7382346	13129188	3906679	-400000047	-400000047	-400000047	-400000047	2	321	1964508885	10348331	10348994	0	0	0	0
6713152	7384110	13133288	3910494	-400000047	-400000047	-400000047	-400000047	2	321	1964508887	10350805	0	0	0	0	0
6707812	7376385	13128711	3908539	-400000047	-400000047	-400000047	-400000047	2	321	1964508889	10350882	10353303	0	0	0	0
6707716	7381249	13129617	3911543	-400000047	-400000047	-400000047	-400000047	2	321	1964508891	10353296	0	0	0	0	0
6703615	7381916	13122274	3904867	-400000047	-400000047	-400000047	-400000047	2	321	1964508893	10355040	0	0	0	0	0
6709957	7383538	13120557	3905344	-400000047	-400000047	-400000047	-400000047	2	321	1964508895	10355128	10355495	0	0	0	0
6707955	7381869	13120175	3909302	-400000047	-400000047	-400000047	-400000047	2	321	1964508897	10358986	0	0	0	0	0
6703329	7376576	13117362	3906679	-400000047	-400000047	-400000047	-400000047	2	321	1964508899	10359038	0	0	0	0	0
6701565	7370282	13119556	3901911	-400000047	-400000047	-400000047	-400000047	2	321	1964508901	10359067	10360078	0	0	0	0
6705761	7375002	13127233	3905010	-400000047	-400000047	-400000047	-400000047	2	321	1964508903	10362672	0	0	0	0	0
6713772	7385779	13135244	3909540	-400000047	-400000047	-400000047	-400000047	2	321	1964508905	10362775	0	0	0	0	0
6717158	7385493	13134147	3911400	-400000047	-400000047	-400000047	-400000047	2	321	1964508907	10362812	10364651	0	0	0	0
6711912	7379437	13128091	3907967	-400000047	-400000047	-400000047	-400000047	2	321	1964508909	10365834	0	0	0	0	0
6705380	7378483	13122512	3906441	-400000047	-400000047	-400000047	-400000047	2	321	1964508911	10366063	0	0	0	0	0
6706190	7384110	13123799	3907347	-400000047	-400000047	-400000047	-400000047	2	321	1964508913	10366115	10366904	0	0	0	0
6716156	7393027	13129474	3910112	-400000047	-400000047	-400000047	-400000047	2	321	1964508915	10368250	0	0	0	0	0
6716919	7392311	13128806	3908062	-400000047	-400000047	-400000047	-400000047	2	321	1964508917	10368351	10369458	0	0	0	0
6716156	7390452	13128663	3906202	-400000047	-400000047	-400000047	-400000047	2	321	1964508919	10370769	0	0	0	0	0
